MLII
0.5
0.36510184810468094
0.5
0.36510184810468094
0.5674490759476595
0.4494458475457056
1.0
0.6662928875572955
0.6594549027539951
0.5863706236619349
0.5674490759476595
0.541714198086602
0.5513054150407408
0.5112787867515521
0.5
0.4814888533035789
0.46445354889549656
0.4430169636444151
0.4353729436465833
0.43093194071408725
0.4458171080072666
0.4290270301802902
0.4591748540316454
0.43104358876960686
0.4810668385947525
0.4392030902230952
0.45327494773298194
0.44685800447260604
0.4395544232815013
0.4349967094510527
0.4464920462224562
0.41217636750895653
0.49056282332448226
0.41938927902327006
0.471628699158281
0.42387187357597256
0.48890230459752104
0.4434669536587183
0.5008442713521633
0.43569142821525036
0.5043617823170838
0.4494823866019055
0.5420979970583939
0.57710107012558
0.7548495860382912
0.6565054216743368
0.858358534729665
0.8882341372068818
0.9349652021329767
0.9202792778089155
0.8727687298463636
0.8079434476556322
0.5974236685697176
0.3503901221574181
0.370094168188297
0.3325899124994804
0.326278843796738
0.3668407423317507
0.3668452271240294
0.37859916108638003
0.3669553421698121
0.3875135998756624
0.42181198725273295
0.4021092534388967
0.4684921971786876
0.9786907048445622
1.0
1.0
1.0
1.0
1.0
1.0
0.9335433286260351
0.5950610798423267
0.38652195812742024
0.23148434377324065
0.16554286699117204
0.17709800983088098
0.19607982764243923
0.20012214102595674
0.22619545767257293
0.23055250749775177
0.2743845508207071
0.26531385341407804
0.2886237659858758
0.26156482933590924
0.3002873260913029
0.26531085820931
0.2903248026647072
0.2795832409251294
0.29672978955520846
0.29406340781172197
0.34236266403001114
0.33454015236439905
0.37813272035254253
0.3923629427333967
0.4449366222557184
0.47126712046185676
0.5471235676534907
0.5944800533036099
0.6234391753224914
0.6528093438875302
0.6677748520601805
0.6663922911238488
0.6529405134389239
0.6332922277508305
0.6151143202746916
0.5774324972917414
0.5528257046896907
0.5568581464669656
0.5171158551021039
0.5325021737177319
0.5280369848347672
0.5238619959796531
0.5017557043741396
0.501632847801425
0.4860728422373749
0.5037863696721533
0.46894434114546996
0.5002764982659652
0.48444849170899884
0.5136478571299288
0.49013914151065274
0.48646502432668937
0.5006358218885281
0.4997164906028334
0.48626213487199743
0.4874531259932901
0.4912905661914607
0.4893792532410216
0.4905509372928085
0.47776321172790376
0.4955436835964152
0.47036071791436446
0.5326896835641288
0.5493825726637193
0.626902780166559
0.5815246358905971
0.6656887224849329
0.6797257248189206
0.7292637364921177
0.6785948440250639
0.6715798400482746
0.5922338648632841
0.46500380459767754
0.3907708885841489
0.39942508504657576
0.3847641378957022
0.40841538998442095
0.4137360963884449
0.4325509240523405
0.41659273973482847
0.44320390513471697
0.438798915264832
0.42965552704557497
0.43296637434193935
0.6463310503158038
1.0
1.0
1.0
1.0
1.0
1.0
0.8840484465147036
0.6161078722576514
0.44808993830221444
0.32120615820325815
0.3036992036232225
0.2514024391503522
0.28669128296707846
0.29057478543513265
0.3269909640740041
0.3216779848911068
0.3138445035741431
0.3345692171245325
0.33635001252529684
0.3252826516974726
0.3165884475111616
0.3306114935635802
0.3316054475370526
0.3378050036270207
0.32567830466303815
0.34460700470269734
0.3516773891616579
0.3720888934267241
0.38655531427692214
0.42753723453606884
0.44476726351682166
0.5060505403925101
0.5030459121194856
0.5692852584900959
0.5791401789379661
0.6144062467939255
0.5966853731841046
0.6020914274370736
0.5647933907061572
0.5656659132461825
0.5330754217813667
0.5269375334292941
0.5061529014090762
0.5063740195295201
0.49586116686400716
0.48825598332291786
0.48757154323006313
0.48586896886705855
0.47766866262013813
0.4736622762482942
0.4875867309418287
0.4665335826240261
0.47518406080092596
0.4638718767951636
0.4690923891025439
0.4714903804650743
0.4826367039825331
0.44514753554318076
0.4777590840140579
0.4537977649714044
0.47368858739985525
0.4625931698196877
0.5001610073102861
0.46265129066735033
0.49947182661028916
0.5307222486448855
0.5907515059018741
0.5898200746025017
0.6456806209456857
0.6892693601237702
0.7256225498790663
0.7068580048019777
0.6597455713947751
0.602732365069448
0.4709938379292809
0.44647211158443956
0.42783477541635584
0.4477045058476216
0.43417659036844586
0.4543483280631099
0.45109662862234795
0.4785463531694926
0.4551356710278312
0.49269018604128867
0.4483825842774918
0.5143837118237322
0.8797011509716958
1.0
1.0
1.0
1.0
1.0
0.9151983414677225
0.6704158016679944
0.46305848030713925
0.3650376654185229
0.2943539113978808
0.25919336203236465
0.25856306164728216
0.26106963244738834
0.2794914201145084
0.26978108108606713
0.3004381169726004
0.2987000787731116
0.31159440721966797
0.3069315179780031
0.3122593189746053
0.31038993598401604
0.3200014524248562
0.311087926754229
0.32580345379740366
0.32213099427179703
0.35106991942072324
0.33943811198454615
0.3583105438353338
0.3770341087443292
0.4252478511777277
0.4417662814768611
0.4735879431648886
0.5198985789009838
0.5537317420609453
0.5909965678501555
0.5937418289857168
0.6253645543236386
0.6317346287491584
0.6186032947307607
0.5896111662530255
0.590781526022705
0.5536676383331613
0.5649278078609243
0.5388144842387573
0.5547094947118723
0.5178243087217036
0.5323933967260867
0.5132848102689138
0.5138028624580567
0.5020017405545153
0.5030347617414402
0.5036769894864808
0.5167332582931179
0.5137239076240376
0.5130380932058638
0.5001876177546173
0.5197034788026429
0.5025557806356484
0.5058573154767113
0.5014944092193385
0.5162128412019359
0.5197528071563515
0.5083782260462011
0.5224629109710056
0.5058378165222042
0.5225637419822724
0.522645556999947
0.5779089865441269
0.5884148201623692
0.6099176707459556
0.6333762422721649
0.6927669247652486
0.6999750410693053
0.7221436498195472
0.6837310304288642
0.6557558999188375
0.5185097947016264
0.48566043858420416
0.4570810241853165
0.4743963602705373
0.47978016718620864
0.48530857887402384
0.5021524501511498
0.4953806578366472
0.5172104082716301
0.5145753766174336
0.5122354623420147
0.5090554571705572
0.8585803065601854
1.0
1.0
1.0
1.0
1.0
0.9605402693875881
0.678440780339776
0.4933226394226116
0.3497729904049674
0.32080812358082705
0.3030241162913791
0.28654187659428576
0.3074825324798288
0.3204781196861203
0.33333839077442484
0.3482216493277358
0.3510215446061209
0.37607215858454457
0.3575853956831967
0.3707453955920701
0.35526644669549795
0.3678386190061745
0.3503748068059115
0.35508111130184006
0.3586366928465837
0.36356397766655746
0.374470151405347
0.3898865189212806
0.4306903844831472
0.4434680696647072
0.4609794409379176
0.49241699654957427
0.5528228813751765
0.5795168624750444
0.6254662341662954
0.6383221141089555
0.6623380695749349
0.6362987074106844
0.6325498745286539
0.5941797461563084
0.588891477652288
0.573698014814617
0.5717842507533799
0.5614850951618571
0.5718402956625971
0.5423861514192607
0.5549475640158985
0.5432388698560431
0.5433122638285973
0.545134293740016
0.5538486032752359
0.5452741381211256
0.5418405538243463
0.537075963275343
0.5493433647938637
0.5441571089062325
0.5460971380441108
0.5471688423313281
0.5382861356776096
0.5580242025273225
0.5367883019266054
0.552555433640723
0.5448270920197631
0.5500566941570418
0.5375402069798014
0.5694056546308492
0.5364697982199178
0.567441570448531
0.6117693551853529
0.6551620352895682
0.633184869114148
0.7074141935694837
0.7051159540192217
0.7278920326747198
0.71103207882018
0.6888547569378894
0.6159779449548451
0.49749921195511704
0.4874330465487947
0.48484866218609357
0.48484537882767353
0.49140636090941203
0.49582037176698374
0.5033616046252212
0.5150700305625742
0.5305606407073608
0.5332369114796294
0.5122160220034597
0.6976346628237581
1.0
1.0
1.0
1.0
1.0
1.0
0.745460408205995
0.5568128231406997
0.42254377445790714
0.3578022410089301
0.34735856616467514
0.33235971754458626
0.3393820653594859
0.35757049077266234
0.3555220599277945
0.35056017110224047
0.3728281307060725
0.37025684494512506
0.36228939331628696
0.36656619838097637
0.37248251732344423
0.37121045843023887
0.3891459718767112
0.3763454288872383
0.40280769251536197
0.37835505379224244
0.3955412298893772
0.40973413972811895
0.4447259857471206
0.4734237224847237
0.5213541500214673
0.5443078661887271
0.5967495785250579
0.6195334487493998
0.6612813849181856
0.6542236835506363
0.6492319267674744
0.6380426543302493
0.617266040012294
0.6051195662659701
0.5746262657436236
0.5665093080441782
0.561034445231491
0.560227665569435
0.537865736243724
0.5418482661337879
0.5245943759461882
0.5440783756886776
0.5201141043508762
0.5368780152665754
0.5091979444536278
0.5309127142429597
0.5159999122206405
0.5288169464580103
0.5091463695015677
0.519428177188243
0.5164284215935568
0.5273292054927274
0.5185673748723109
0.5328324670057382
0.5262603613210557
0.5322052018421404
0.5271716655943104
0.5311796926926593
0.5388069058520879
0.546964431079397
0.54599755254506
0.5783908055738621
0.6113698346314388
0.6085723819848066
0.6582573241835428
0.6783610250776095
0.7166437482007897
0.6898680988675274
0.6962403465925896
0.6523716918507889
0.5697268108137853
0.47224094664053656
0.4821274660841454
0.46093112425851
0.483464437090863
0.4781688055392948
0.4940362488081755
0.4840782240008526
0.509359364606756
0.511891627825793
0.5026012198099115
0.5015291921874809
0.6320034366158911
1.0
1.0
1.0
1.0
1.0
1.0
0.8192047741697422
0.6103321971671525
0.4580904901021416
0.3834562853234108
0.361065648368355
0.341665071783261
0.3387671369947182
0.3459391123992456
0.36192694437944584
0.3624287131186398
0.36910159787708213
0.35112236544290765
0.3654501672542262
0.34989072782282843
0.3653421718944103
0.36576959115541874
0.3554012467955496
0.3596336059698594
0.348798794226225
0.37203473273201376
0.3679410068787079
0.37948892016365854
0.39681125885112856
0.42424951350921936
0.44680656284860165
0.4901715301413644
0.5273279370675363
0.5739406158737512
0.5748401317291564
0.6156661409233545
0.6102679744467805
0.6360927609487795
0.5985233259249998
0.5984396032887865
0.5680866877539229
0.5790327980789856
0.5522193311959547
0.5602894460661813
0.5308661559822248
0.5352370650195291
0.5239956307960196
0.5304616406043385
0.5251468406458571
0.5163881675330505
0.5217428558475812
0.5155255742128537
0.5178227649031594
0.5162920109712014
0.5230289261777061
0.5215038056105357
0.5202992298534943
0.5080475263169519
0.5227800948298256
0.5050674949056676
0.5257376678968981
0.5181447514974589
0.5273634156478361
0.5173324636302492
0.5220986104913891
0.519302872067428
0.5326476484026325
0.5215721790743733
0.5522307589743395
0.5776417294077137
0.6077846280025118
0.6056442750595153
0.6579096429562309
0.6867297109440835
0.7062942253554907
0.6872237265294576
0.6744517698409885
0.6399546433613189
0.5250324299931278
0.48483226123447676
0.475988100592733
0.48765183503454174
0.46926477524991866
0.4998261641273407
0.4810273034769052
0.5136102816251115
0.49542680339365963
0.5220655656348897
0.4956727957345253
0.49975533661134064
0.6045844267767773
1.0
1.0
1.0
1.0
1.0
1.0
0.860508962128215
0.6719994627688377
0.48249762386621803
0.41269661423208925
0.3578649781132145
0.34423940832741795
0.34147367614316504
0.3577473829993549
0.35313508931837345
0.3764239913285593
0.34394541463961736
0.3748270874343221
0.35788753848564714
0.3783947484985384
0.35866542831994086
0.3654444103528979
0.3371463426141726
0.3454549395861838
0.3425013705130144
0.355031601667329
0.3535544139177218
0.373624998683995
0.3617474540633645
0.39663012587337204
0.40443890794100834
0.4354266542639886
0.460866556914997
0.4993896760375273
0.5302975672876479
0.555715934186192
0.588395625815485
0.6131557815157643
0.6232727690389571
0.6210886633483279
0.6119637829186022
0.58569813791392
0.5806622459631511
0.5528770977472451
0.5658758517427367
0.530364754847279
0.5404773659235965
0.5252021992027418
0.5352673697336823
0.5225606477852177
0.5204235270649971
0.5103514327218656
0.5184067885142499
0.49770255812063374
0.5115097542791767
0.5074089235446834
0.5090536284603037
0.5123862479388157
0.5060154835508655
0.5132423678215606
0.5212502502483825
0.5118524712339794
0.5112485601156971
0.517826734878842
0.5018964885995358
0.5259784550922117
0.5010397909368964
0.521400156146683
0.5141003253141868
0.5224305486384188
0.5223598333610282
0.536227427966523
0.5500041501338975
0.614579924164023
0.5806694273215062
0.6463774830794333
0.6597288100954555
0.6840924422737512
0.6831035081156853
0.6754240137857209
0.6458309330565549
0.5877720210419607
0.4783492801892888
0.4698871763330434
0.4533520112707149
0.46391878762167577
0.4689887536132916
0.46757856550049803
0.46992815704163443
0.47620631343117903
0.4952035522694172
0.4901875063753133
0.4872981016535043
0.4850338680621163
0.6185267429663018
0.9719838543195525
1.0
1.0
1.0
1.0
1.0
0.9099511801755433
0.7301958740728441
0.520857322788084
0.4004709798626955
0.321328433557568
0.31701802388990896
0.3034159513141616
0.30118129842723523
0.3121793768200933
0.3189387520611399
0.3159652675768959
0.33336186259947026
0.32855741352290135
0.32609182301352374
0.3338443484256578
0.3136403281900962
0.3211363426913353
0.32175984255726175
0.3251472537140773
0.31995728868156764
0.3314658879860291
0.3214167067951911
0.34988368538659576
0.3476309773373923
0.3898549460569479
0.398432209237983
0.4342127790399333
0.47433248204484146
0.49941357117962226
0.5250964056624539
0.5620178545232755
0.5761958486584908
0.6026290479092168
0.601874446718788
0.5890095082824299
0.5940007244635386
0.5674128038268549
0.5604532577114434
0.528903636387875
0.5250915544591277
0.5170091988909886
0.5194085537844549
0.49773463485444164
0.5176569728803408
0.49066682622132207
0.505532872070568
0.48394788861659316
0.49834497688210255
0.48539849016079134
0.49726662537156774
0.48159916186422125
0.4991856051638326
0.4827857869388188
0.5001550035140967
0.4954703402891223
0.5057994907928748
0.5004448437431944
0.5001341953424383
0.4956168468505903
0.5051702335870899
0.49751308871301425
0.49730437704190467
0.509866925146188
0.5041211947675243
0.5205907258798163
0.5003335895723445
0.5312011321814519
0.565825188742954
0.5989052196714837
0.5825582959666543
0.62954131989833
0.6372542034481219
0.6788000343865488
0.6505166847577667
0.6536383936443607
0.5984688194046061
0.5190845350248546
0.4515265773591823
0.44746130415768703
0.4442816038933433
0.45627696601698914
0.4527997980688182
0.464720946977749
0.47080108573692525
0.48280386477793485
0.4824811893990021
0.47645909719040497
0.4937660161248322
0.7565178716635003
1.0
1.0
1.0
1.0
1.0
0.891051925066607
0.6946196058254379
0.503409755422467
0.4016761699245966
0.3318046962114063
0.31926110613802994
0.2909815817685487
0.31858125225258943
0.31215841064387695
0.3212675829686538
0.3206163311968902
0.3387719778190908
0.32687463139297684
0.3270658016443544
0.33496165630623836
0.33106441934151154
0.33267373382977394
0.3313618674794441
0.34356679077639346
0.32566108014331896
0.3422652094783711
0.34962745469129464
0.3695306451345783
0.3826598595680468
0.41455306600150854
0.4247660769085673
0.4796374481274196
0.5014030139763663
0.5451372906516485
0.5669055527689764
0.6063219361464292
0.6199056925568778
0.610132256204095
0.5915010704182816
0.5823386551709919
0.559363234155074
0.5452993789567973
0.5260835022372371
0.5294143732334068
0.5278477876353725
0.5041337824217509
0.5171875649372366
0.5044735606620876
0.5060983897222363
0.4943933401164856
0.5078539525763002
0.4897596050424369
0.4919216211757069
0.4820966500524994
0.5007029073735627
0.4908380338230446
0.5084921704836713
0.4874994713132582
0.5087779647749775
0.4984443844276233
0.5099769786092612
0.49858615306249215
0.5007239681712208
0.4967320783838195
0.5059502190249655
0.500122414381986
0.4958888494414208
0.4996888145350482
0.5176529032598656
0.5537035822294982
0.5702509859893511
0.5754660812741846
0.6062702130691233
0.6531976424878827
0.6621467090558779
0.6641251535840228
0.6226117831048781
0.6006431732341685
0.5026745073913749
0.4622769326503994
0.4375658370821219
0.44056499279515393
0.4405150307791835
0.4713689079439021
0.4599884250866543
0.4837236581370353
0.47086691017365745
0.4934101325394688
0.4798325541734855
0.4870076578350407
0.6156462244992138
1.0
1.0
1.0
1.0
1.0
1.0
0.7665575857626611
0.5906109741833006
0.4424918122350193
0.3794565537241787
0.30985285015028097
0.3202006283635719
0.30671243251942426
0.323443017371278
0.32134353537111887
0.33291947781386527
0.3208575129190906
0.3429344133891446
0.3237304003734805
0.3407445771391712
0.3277434868715944
0.33036675337192356
0.32498610544826234
0.34429656119036445
0.329072478327631
0.34422131253444394
0.3388414850156131
0.37550974897960454
0.379488234548092
0.41120167769223526
0.4272664084297751
0.45558509503400674
0.49913784281289997
0.5347861936074966
0.5741530303525746
0.5884419927492989
0.6066022167911977
0.5935846415839825
0.5917329850545255
0.5558237126419505
0.5623240532453703
0.5405074241169604
0.5426053790138099
0.5301212353628724
0.5380954375912583
0.5214690961063642
0.526586317782294
0.5191319110143614
0.5132429713027069
0.5110555075419356
0.5202984335707349
0.517027116833806
0.5260592021909759
0.5198505554350529
0.5263969484188564
0.5241789934290574
0.5182049559900863
0.5282544649502843
0.5236350621452133
0.5363758918348996
0.527655708886207
0.5531419680028428
0.5202490838637318
0.5466052103702834
0.5329690710925992
0.5629344574744732
0.5551864048477931
0.6119371697708413
0.6272436153938635
0.6315177026195693
0.6668342281675382
0.7102500330424284
0.717090994287578
0.7058486037418479
0.6842652157432658
0.6255420462340886
0.5132240506195567
0.49557740074605655
0.4915097051083344
0.5051087500337407
0.5160705995337471
0.5044883429563882
0.5184295983078503
0.5127966922929582
0.5404127928086877
0.5107063689337661
0.5633347087651307
0.7682364240427022
1.0
1.0
1.0
1.0
1.0
0.9343050706265096
0.7340137718684098
0.5530230622595533
0.4538731002097268
0.38884427637892427
0.3780105498176294
0.35875791874002394
0.3835042926514978
0.3796168904926126
0.3740382861490622
0.3901149502455835
0.3839226012343274
0.390761584463753
0.3854522103470197
0.3900832158879829
0.3897965496810807
0.3936918154781272
0.39116065902889796
0.40128767298965046
0.38418160304509713
0.4115741543527802
0.40308335296525993
0.4344731263125762
0.42965589741104626
0.4772113617713011
0.49472808307750266
0.5400223673703011
0.5843006810351932
0.6181929323053519
0.6495343687435328
0.6693908102089051
0.6593947647277785
0.6604444498269559
0.635366740700876
0.6230100638319822
0.6046100501908283
0.6026104452280326
0.5969879324417923
0.5806605047836172
0.5811940967586054
0.5658356306507638
0.5786054391836332
0.5606245139729582
0.5700419231632883
0.5479122988153851
0.568820270776212
0.5588880077018445
0.5652444821789785
0.5575065070584679
0.5697805618561539
0.5622029858417226
0.5749138474478546
0.5679596456314675
0.5787957763768471
0.560828746108547
0.5808643724311346
0.5731765823962159
0.5949488857778553
0.5753654289954844
0.5790428358466068
0.5992830250137152
0.6581074412286217
0.6471931769695092
0.662898624515572
0.7071232200996774
0.7151400797510397
0.7378091891961944
0.7025400770805101
0.6736076290454018
0.542174212902237
0.5294155158181141
0.5108945474530187
0.527801932104188
0.5301350857317588
0.5334959455293979
0.5305625730329397
0.5592160906137875
0.5526591244930302
0.5721248204829725
0.5545864055033041
0.6025106836656937
0.9185895081891575
1.0
1.0
1.0
1.0
1.0
0.8821225245989004
0.6762188955888909
0.5298914072740029
0.45003051197061794
0.4157509150933697
0.393331970855904
0.4005997926641139
0.39583898058083544
0.41958714313831597
0.4107065434352922
0.4320946479287467
0.4072516041200158
0.4298723066323264
0.4082177381797697
0.4321002437736524
0.4040255470343085
0.40772328962386706
0.41094175956182866
0.4094682234708146
0.40332610096176413
0.40838675896258037
0.4215827758912334
0.43596498928960614
0.47101482386268945
0.49550039901294385
0.5221459506439022
0.5448544093112047
0.5864354398079131
0.6098167156530349
0.6569749045983564
0.6506029886388999
0.6650726493577619
0.6410872670156228
0.6458757906236684
0.6173676104276
0.624106633046625
0.6031953664610885
0.5942382593967631
0.5757960752274858
0.5843428549372199
0.5715946547257854
0.5783271681201342
0.5622147684078403
0.5579714693186153
0.5492386320982189
0.5690842276735825
0.5606721367973277
0.5734288614807834
0.556965262112765
0.5623290425077744
0.5735629914777342
0.5591909954058385
0.5660760487035013
0.5563655141397426
0.5569886062465307
0.5614708034347895
0.5705203887777194
0.5567438727888587
0.5620833343022772
0.5592946436997452
0.5729824206112526
0.5730085952785291
0.6345522945898389
0.6200904211927687
0.6734460121694129
0.6910558354254172
0.7199789806452777
0.6967563266206034
0.6829557825893211
0.6191307951259567
0.5240096435793128
0.5008410872370134
0.5041667736824762
0.5192950147559869
0.5047010518853713
0.5184577234687158
0.5183553266412082
0.5374759938524056
0.5220895268524097
0.5320517219113908
0.5310689572421852
0.7912988790424805
1.0
1.0
1.0
1.0
0.9860552250304261
0.8360602036302012
0.6487268215059383
0.4943209033396882
0.4144620682691132
0.3936266689733966
0.3750898874982349
0.3841996679724276
0.3832893057821269
0.3997721899293326
0.39868229147861084
0.3980138374139022
0.4044660727740064
0.4077243631131949
0.4115046632758278
0.3956928981243607
0.4084594374510354
0.40079549774123857
0.3962992352122995
0.4007453969621825
0.41647031254924194
0.4098034896763706
0.42408580505228083
0.42497515870609914
0.46876646343909395
0.4821809746528018
0.5163686114941941
0.5242354081351885
0.5745092359224904
0.5987683605335846
0.6187536151867438
0.6274721559537519
0.6407884468647096
0.6267492458823195
0.620361398760975
0.5983144466408181
0.5863915345430034
0.5800977306218807
0.5665539999074015
0.5657320998328345
0.5592408875097389
0.5547175628140604
0.5515709250801536
0.5470723050467534
0.5279792766169584
0.5329942626229058
0.5280684702952624
0.5402784269874784
0.5328542463204509
0.5429721533895722
0.535917106146535
0.5354380267685132
0.5258578850794634
0.5493090010134722
0.5247695175623802
0.5431391595559856
0.5377535745024601
0.5422625863619712
0.5270033664792606
0.5346488005928647
0.5279532808911119
0.5312791322664445
0.5388187250084131
0.5492031385792524
0.5804346282039005
0.603847590195627
0.5916484056628513
0.6251389063697153
0.6708297459753646
0.6759321816907355
0.6979945920416833
0.6631082634621382
0.646418850329159
0.542354449448319
0.5033639671814388
0.48136139637138164
0.4985154525277623
0.48881486808199215
0.5124164572179514
0.4946677148541088
0.5156423300038961
0.5182273489920077
0.5310556075550105
0.5210445011899321
0.5474199321322681
0.763466744378008
1.0
1.0
1.0
1.0
1.0
0.8947781641132375
0.7044089097257263
0.5599309351159653
0.4713787382776212
0.4110423474753124
0.37628225091681217
0.37527057239020917
0.3713423171056691
0.39509715826435754
0.3865165267328739
0.41508847100439583
0.3969542399223883
0.3990812979771251
0.3801202659927615
0.40548234598889243
0.3810449211564671
0.3932329128432059
0.3913604726545536
0.39684064123248336
0.3895167832757326
0.39019799635487284
0.4019947246116942
0.40328805699735487
0.4181412871721789
0.4391635725486854
0.4626867184839565
0.4754323641774931
0.5010562872242462
0.5246794782806746
0.5724370423280369
0.5850870537337844
0.6215269288366398
0.6223821802909686
0.633958892673665
0.6181006994870437
0.605500700028163
0.5825003060015698
0.586718597145476
0.5616872200647858
0.5694555121115524
0.5480310573424884
0.553365303645471
0.5376123730506488
0.5437649176514547
0.5401498419978278
0.5325638377600055
0.5342964518794351
0.5399996903582146
0.5374296585471376
0.5396202083479646
0.5374864998118536
0.5384691575190392
0.5438242787202248
0.5370308068954425
0.5453992475624745
0.5301350978123571
0.5359098749999398
0.5290641139473177
0.5426676906603587
0.529373725875433
0.5390804237054967
0.5401351747107482
0.5480711849560134
0.5296652772026447
0.5442587934136447
0.5405547965645545
0.5690446435278411
0.6057586553835079
0.6001917678515902
0.615716137848083
0.6507048004710347
0.6621662770999011
0.6808361110068984
0.6589022104545506
0.6355007569498488
0.576703300833378
0.48689904731325384
0.49861088073018783
0.4699230271903921
0.4824434699296193
0.4801424861092497
0.49148724772295543
0.4756290976645571
0.5042701984980971
0.4921393747174346
0.5141474580102134
0.5030295347233945
0.511065925449486
0.5716032514349196
0.893749120703287
1.0
1.0
1.0
1.0
1.0
0.8618752444763637
0.7068017750109753
0.5489212261672705
0.45354407057796176
0.38857118104369776
0.3686159692461901
0.3572732078410391
0.3667570468330589
0.36276306782537926
0.3860263721127922
0.36793504538360655
0.3863332008717875
0.36356659487907395
0.39201939548479203
0.3735940318071835
0.38966516700857295
0.373634834782363
0.3795433534162722
0.3697141501596857
0.379529458639683
0.3675305332578313
0.3862960657893838
0.38293294913340725
0.4006421057781139
0.40893228765066336
0.4421523859062438
0.4699080140309991
0.5007505626685993
0.5306525576098874
0.545960201971415
0.5762915697080411
0.6022576437707683
0.6182481958696707
0.6069704397750397
0.6014163822115125
0.5833081610786278
0.5746818639307933
0.5557719052332233
0.5516065591460428
0.5234733168764756
0.5309446742066097
0.5185301121929891
0.5266388806377342
0.5135729661400223
0.5085039157676892
0.5053003085822124
0.511017627693664
0.5041926173224753
0.5077307665634639
0.502265903444708
0.5073787461630348
0.5047790231988464
0.5105724950272911
0.5087222090091824
0.505059258823798
0.5172985304735471
0.4986876398751292
0.5169387393560501
0.4940845137032423
0.5120311732605141
0.5053801750853147
0.5206387913363801
0.5140216507596095
0.5269646666136432
0.5588539852816318
0.5967994841386787
0.5581561066338833
0.5993021147594539
0.6224703557951504
0.6522904775812604
0.6440837796877918
0.6350557780522533
0.6044798021767064
0.5286451905766023
0.46431646504998164
0.46780321074969294
0.45802448644125826
0.4653659766025486
0.47139661687868567
0.47081539645487724
0.47119557925658856
0.4828420396940185
0.48669594907705716
0.48963214663598736
0.4929021129180323
0.5070323802877897
0.733761204787996
1.0
1.0
1.0
1.0
1.0
0.9307736662906463
0.72849966010078
0.5765686459745467
0.4417510506306429
0.3893877090983968
0.3433312944305356
0.32804547739866985
0.3262117438003866
0.32868593860142237
0.341351334165002
0.34310462308320766
0.34696245609368875
0.3473183863622052
0.3525804147243553
0.3478356000908077
0.35643530655427735
0.3398997124584468
0.3513728530436631
0.3352328824724388
0.34908303846536387
0.3493064587095105
0.35182970542740305
0.35029992927462816
0.36344126224458995
0.3621769091787116
0.3924721087216085
0.40301844454210967
0.4345748286400693
0.4448492472687824
0.48736032318072714
0.512035073807594
0.5486750396297648
0.5704215230935559
0.5741671662733451
0.5857234282135834
0.5604506075836564
0.5426483087244584
0.5350041901593157
0.5111348034689992
0.5063052624994075
0.4973238924214022
0.4847216424144838
0.4867474308347277
0.46141917232435825
0.4850552559287121
0.4619480920610332
0.4726416611973371
0.45110886579732795
0.4599415138000194
0.45212815400327805
0.46534250985812803
0.4568598825597262
0.4635053887568302
0.4484245826564462
0.46292233180940734
0.4558353043742073
0.46658508914993047
0.4574096129496493
0.4666871782813627
0.4673581866855825
0.4600899031118576
0.456897107629376
0.46031877282443173
0.46885354077760466
0.4624971250660425
0.46824599929015925
0.4980490727623089
0.5301487528592287
0.5255388661824526
0.5758536748416476
0.5777068375358795
0.6100587354186027
0.5911025210857547
0.5874036329906053
0.5442200261608602
0.4565402885634942
0.4183683187744288
0.42094697628115113
0.41878506521809233
0.42812069654300666
0.4201190324350309
0.429943968798598
0.439805257785941
0.4397002533645386
0.4541481161971267
0.44376528110725344
0.4468299225245298
0.5126538047924943
0.8499774382091244
1.0
1.0
1.0
1.0
0.9977433682143648
0.7396580344892489
0.5693223877217095
0.42704071915390845
0.34231235733935844
0.32372246051919673
0.2973775729660817
0.3099975274668773
0.30475290128873606
0.3249371088734712
0.32479276552659764
0.32610489264304865
0.3367138783149534
0.3317484700754243
0.32402111467681405
0.32607994689643316
0.3135237150416631
0.3217254920009379
0.33050880021082973
0.3209762084895532
0.32934248817602935
0.31921624862378983
0.3337245477647616
0.33370157158605646
0.3626515067906194
0.37789912642583945
0.42279159603106553
0.43582923604940194
0.4615490557458021
0.48447914366368056
0.5361303592177771
0.5416244741481507
0.5568972355117952
0.5466723885295107
0.5400889985257257
0.5199045077474521
0.5163034244197441
0.49944680634668925
0.4966304887023161
0.48322955189415373
0.48706182428417877
0.4887825796416017
0.48114162957038076
0.47670503541723325
0.4748457870396029
0.4834351418152365
0.47879313903128595
0.4826204028867294
0.4787938892357886
0.4815602239818236
0.48642063301824406
0.4926654607913174
0.4725455783617337
0.49581737687132027
0.47593631368191175
0.4927743845271405
0.47210150025171654
0.47878757116105775
0.47778363512852423
0.4919948452991186
0.48673419210274893
0.4958718056304986
0.48249176183908543
0.49018755787639867
0.5065562567036589
0.5289973828234257
0.5574904308962705
0.5540955574936667
0.5941816208185482
0.6114493675435337
0.6448110568781733
0.6290882329440141
0.6201489215745271
0.6044639207262412
0.5159196834558613
0.4572529961702282
0.44944661669094976
0.4369862999097142
0.4652195137080103
0.4464610117537374
0.4647748546880101
0.45917713740283805
0.4747326845129032
0.47389512106918225
0.4768131511555557
0.473668698850929
0.6294941000772348
0.9259816198342283
1.0
1.0
1.0
1.0
0.9610374105801787
0.7515754431892127
0.5701772483042575
0.4712717764622248
0.39464702347413727
0.34298508062474903
0.316147743810801
0.3273773169811546
0.31941756915988295
0.3427565992068482
0.34220061622143066
0.3377018254604473
0.32941332837252973
0.34301694847045416
0.3338677314907565
0.3375752820988505
0.32147892182057664
0.3374913953177029
0.33046145413037536
0.34095230758401696
0.333382311381724
0.3444218241482158
0.3377479049810759
0.35597365797993163
0.3787740219955593
0.3912320060534409
0.42106846193023506
0.4406691160319485
0.4680703006128285
0.5079357265891049
0.5385429157831931
0.5593433083239856
0.5788718307557759
0.567755691149368
0.5765393281813644
0.5502948539598199
0.5459057051817442
0.5163732637588574
0.5209148523345899
0.5034074456164934
0.5099070477664667
0.49733616520775936
0.49617953438488954
0.48234352227672883
0.495898051198784
0.4884386359344945
0.48744959298596335
0.4767317055512139
0.48437332771200803
0.48190735529858475
0.48331684046506823
0.4836780953503421
0.47606621481509653
0.4921779796567618
0.49296700767671425
0.49941922247443105
0.48465584383766347
0.48995071192136735
0.48932078239264143
0.4952128109972461
0.48505239622896806
0.49115355100000613
0.4902837238123694
0.514628043719503
0.4961636571618701
0.5562094699516587
0.5673962745876124
0.5745487037831849
0.6046293568538313
0.6302945446668283
0.6440774397631682
0.6385734056921264
0.6198833295378062
0.5879541088735045
0.49728538953218876
0.45081067061161484
0.4453497792243916
0.452996547554999
0.4631457473013653
0.45958293228596814
0.4669427860606161
0.45931766767425464
0.48339723539145585
0.47331758820801006
0.47368574331915686
0.4541190719321152
0.5577830986995264
0.828019817903705
1.0
1.0
1.0
1.0
0.9627899849042665
0.760897296154593
0.6311929109473887
0.4867135641178749
0.3973722765629807
0.3484818713960838
0.3433324988026104
0.33618331624061615
0.35154288983932236
0.3464389463808973
0.3445859213443889
0.35652192280233647
0.3472345720934254
0.3539223229538987
0.3415943954037918
0.3558371248679414
0.3429398006317282
0.35294834185324275
0.34329639531875705
0.3465713963804541
0.34026164726018376
0.35859175689069633
0.3664604880854069
0.3883340343686202
0.39693408673879343
0.43880748489249993
0.4627024174496481
0.4979091457074489
0.5271840363699231
0.5721478118958278
0.5747073185675047
0.5760819237093958
0.5761891956346424
0.5607124629932501
0.5503696438909824
0.5252317402482807
0.5246305421842795
0.500767535292521
0.5125581709115512
0.48917587770050586
0.48894091400492945
0.475653083992829
0.4819065082665078
0.46909306119833305
0.48087022592580214
0.4726685881635646
0.474692727761993
0.4659130892627964
0.49028824073156096
0.4556160455274214
0.4836686096183806
0.4704328494025224
0.47489500650392047
0.4699881834772853
0.47930033765322155
0.47820278241609876
0.4781224756719948
0.47753659460219555
0.48329417324368434
0.495077279261171
0.4910327850307401
0.48705646693412286
0.5268194091074581
0.5512967642336468
0.5366161735415199
0.5867895640285089
0.6027138338997593
0.6443312790466795
0.6036657078781756
0.6107530009344924
0.5466020809726986
0.46543713998119535
0.4329907666592298
0.4367038426882283
0.4287185047232868
0.45439839129774046
0.4471613214060963
0.451209018908538
0.4556116159994829
0.4746504197568734
0.4737082013062115
0.4779995073988956
0.5019618558403237
0.796618680122983
1.0
1.0
1.0
1.0
1.0
0.762251363448177
0.6119795665421535
0.43566157394687605
0.3890507631579401
0.339362036031957
0.34507559009817057
0.3233131609421762
0.34342418564698113
0.32963337387825575
0.3589030724026335
0.34726650898049977
0.36130931331218585
0.3498151796453933
0.3595344223026868
0.3486564715489142
0.3527503549897444
0.3407314562203272
0.34311346434875084
0.33224725248216125
0.35920485311173334
0.352445346247727
0.3581073465871591
0.375689938483102
0.38725303195253924
0.41749716111835067
0.427210269405359
0.47615268019433604
0.48898167466818165
0.5263852712450734
0.5514590227340581
0.5812544615963253
0.5783216499225305
0.5834384553247995
0.5696412923259727
0.5605999393539962
0.5362595744201694
0.5403323648012247
0.525755413432304
0.5246980757362325
0.5045602640855438
0.516237267705997
0.5021062821097917
0.4992710962176205
0.4963108450131727
0.495533067847343
0.5026477450146734
0.4968349557222707
0.5066018245169344
0.5038637537750389
0.5116586184208487
0.4938123951180481
0.5051249773306393
0.49376952963644494
0.5065500207873075
0.49248356332785176
0.5158958229620645
0.49651341302593643
0.5159323008712876
0.49970075963181804
0.5222503989441941
0.5099859092053982
0.5310513620161069
0.5470311404730615
0.5924503686112219
0.572105825325825
0.6261367210083418
0.6562485173232677
0.6676490067999217
0.6343972800185004
0.6296804935332678
0.5581495485985616
0.46626424033362185
0.4675662716793537
0.4691541124887335
0.47702754306118245
0.47650687263533165
0.4867023770938753
0.49407354017015515
0.49882502743680635
0.4948723736327242
0.4998167428044777
0.5745445364673964
0.8830878170942986
1.0
1.0
1.0
1.0
0.896542109984092
0.7288423112177662
0.5617632868745892
0.45464807803265544
0.37670668324982726
0.3523608422293808
0.35651485118722104
0.3639132706485957
0.3725089346431695
0.36508207549948
0.3772181356478524
0.36830415372124464
0.37868837735307304
0.36248724773394986
0.37995270847516477
0.3651982385632735
0.3674031130383294
0.36205132931971085
0.36877685117953607
0.3588014857384312
0.3756719727829555
0.38731799515066906
0.41472559033628303
0.41882170590746626
0.4584869301586486
0.4802643281887244
0.5246882548594226
0.5517899874221691
0.600291682025081
0.6016554057959794
0.6120631013515039
0.6075679073297197
0.5968784434341233
0.5813631399067098
0.5622878278677493
0.5684780420138701
0.5501858336754119
0.547313718132728
0.530650373093973
0.5452161212789802
0.524821626955544
0.5207820759163069
0.49337321952855334
0.5072308952402412
0.5118400203298574
0.5509466852845605
0.6432007176149911
0.8671437898258756
1.0
1.0
1.0
1.0
1.0
1.0
0.6685894108625119
0.34449782319309397
0.29843035338323387
0.28208805756556443
0.29426574266254085
0.2794265433142498
0.28834282512405335
0.24941733386805703
0.24527712662683848
0.19660934726342066
0.24644968604066295
0.2534761626718392
0.2620399381414694
0.2637580688525545
0.29097972036780295
0.26629198457018183
0.2773958686254134
0.26400652930100577
0.2675162118132256
0.25753296324003994
0.2595406655324092
0.2668529399783368
0.29014938870010776
0.30225776349865585
0.33647847320876106
0.35632658910349857
0.38986411911839297
0.4272284561794746
0.4731875958124444
0.5096802774841299
0.5240439124985209
0.5475503916322799
0.5476337664056622
0.5587862468413692
0.5494928612640517
0.5645307159651337
0.5455110729043878
0.5585497511643611
0.5535954876145416
0.5601873422298372
0.5514979570338812
0.5588693276163215
0.5468071938519063
0.5506935649930811
0.5290478748531466
0.5435966307249958
0.5394620575687432
0.5296512778957178
0.5205948291072894
0.5280216981710634
0.5187440868437937
0.5213362528408688
0.5238832503205133
0.5088218829113573
0.5089779786485368
0.5139609338041625
0.517529990400061
0.5066160055488592
0.5192471485151308
0.5040944433770058
0.5215422991955548
0.5009066081448742
0.5170055320437758
0.4968496731138009
0.5138498660218367
0.502854374494824
0.5100711101563741
0.4977276180624985
0.5210163694402941
0.5017326488536592
0.5223001136759252
0.5064957301748385
0.5168444438839038
0.4988475571506032
0.5080045754424518
0.5101501643988456
0.5099318881815266
0.5138146753824707
0.5102588817824423
0.5084430868332955
0.5101770787419919
0.5125254337939935
0.5275354203078174
0.5236727200493213
0.504764447531404
0.5235108860306696
0.5128797134645238
0.5244224078774986
0.5056326650149294
0.5193744166339277
0.5146977765851876
0.5175304714110787
0.5094255991925511
0.5266197056713228
0.5148463216010664
0.5224287795254299
0.5108859099714527
0.5348540490017049
0.5471736321065739
0.5846511303640687
0.5846511768739496
0.6084902506683056
0.6404258497253965
0.6372200183576086
0.6564354741849192
0.6370849685558204
0.6294695896086655
0.5648635402982808
0.4811436670790485
0.472169450105974
0.4758239981204575
0.4609335186298564
0.4765815061347839
0.45751522563363733
0.4824275497294949
0.4844859421796734
0.5051048010910699
0.4835716465925424
0.4885991929623573
0.5884609472701092
0.9492052199056549
1.0
1.0
1.0
1.0
1.0
0.737585127739991
0.5507032349460828
0.4038016742446592
0.3600389615827191
0.3066052315216218
0.3116659176444991
0.2971905164388345
0.3209123046976242
0.3157358004183973
0.32511471961078175
0.3241486956288042
0.3298884981261271
0.3109420941747155
0.33741539548123295
0.32148406993681383
0.33927807913237606
0.33258085324264697
0.3541459021194585
0.35100286286959725
0.3676416786688339
0.36221751149070525
0.3968456791441207
0.4020916030176961
0.4492920540214012
0.4685087076105344
0.5008254852617374
0.5323629818013
0.564763017369517
0.6059168644667682
0.6250688202336999
0.6489252461284639
0.6663384502455939
0.6816595726078866
0.6667582389334319
0.6569739845217799
0.6326599865116944
0.6201452566956818
0.5777123374864765
0.5709651636318694
0.5408861934717365
0.5348710066188865
0.5094253355310044
0.49828542083622196
0.48634055270347554
0.48005846185790724
0.4708174830809287
0.4669638736849183
0.4553819928020079
0.4712148671564223
0.4534515369771812
0.4631628706502268
0.45390375598224164
0.456285253061401
0.45181695477833045
0.45483684725568796
0.457894591871689
0.4564010008396894
0.46974814255665853
0.46714287038505714
0.46670945723958485
0.4690721306842881
0.4754205797686536
0.4607330433267629
0.4799881507338021
0.47385032335135835
0.5147363511799683
0.5277076379285521
0.5440717459410067
0.5681768642075566
0.598264274418719
0.6153570677204662
0.6378879876341457
0.603327266136421
0.600420954520996
0.5333654584946671
0.4603420332231082
0.4409356283366691
0.4230855154785205
0.4366917166967392
0.4261473172906243
0.4362897763599264
0.44054421117796405
0.453436267945903
0.45473897740497
0.4662898887399291
0.4519349036399739
0.4524526736075705
0.5004628550185303
0.7871696120480118
1.0
1.0
1.0
1.0
1.0
0.8530174394669953
0.6530131722027882
0.514205623404639
0.40404753796147136
0.3502317371595226
0.3064410704575202
0.29529998229869314
0.2920128424011279
0.30784398804674445
0.3116088877336408
0.30409021433304695
0.31335099929085375
0.31519494332148235
0.3215709434508131
0.3142159371061945
0.3340513865363632
0.3166374265433226
0.324543777907523
0.3046560951388826
0.31644689891500055
0.31645496983163446
0.33398074702463054
0.3218505665718442
0.3483121646914503
0.3463100139309164
0.36121732703228493
0.37881169113329305
0.4162445681884307
0.42859061046269353
0.4648070019766631
0.49183747476594347
0.5159654675766064
0.5432895215362178
0.5518671917754203
0.5503750891036516
0.5431350140215914
0.5286927430542934
0.517782220538939
0.5169253942212999
0.48990582851726544
0.49992922972550735
0.47687094373362965
0.4904640197194081
0.4859520689115511
0.5012348899908823
0.48354161812720947
0.4883991430700273
0.4789474827061765
0.493987076997543
0.48543046098884746
0.5013219429967459
0.48954489743993024
0.4965750604047175
0.48823588783654054
0.4911319082564334
0.4872079288341111
0.48721234357823723
0.49116962500673156
0.4987804626529299
0.4939939920344389
0.4972787959584618
0.4859447207650575
0.498092684761606
0.5079481741420838
0.4830163789076905
0.49201179622287733
0.5077430114972978
0.549977481916373
0.5716550274938426
0.5687663927184989
0.602534711782324
0.640735816156382
0.6449298136399191
0.6560668891549081
0.6236361907662566
0.5941185449367067
0.48780697837668335
0.4533553696271479
0.4399082583917746
0.4457648886760962
0.4541752394476418
0.4478602978882106
0.4605254544507547
0.4565130393017098
0.46924594078953047
0.46414402102558966
0.4784304146719661
0.4542603983328631
0.5036094713170851
0.7573056276017519
1.0
1.0
1.0
1.0
1.0
0.9186488275971378
0.7407825124402372
0.5308598428444845
0.4288623917044939
0.34697210158403724
0.3241192042182193
0.2878964828113237
0.30348164642723413
0.28869284409942414
0.31125794768426507
0.30474210158546117
0.31906453456344563
0.31968349850411176
0.3195851785058938
0.3099569587269876
0.30978080673704544
0.31617538251705085
0.3173293457376322
0.3079580364129352
0.3064286998688126
0.3226034893797804
0.29769339229769076
0.3296848201659965
0.3222325788476711
0.34435260612437996
0.3619355190260666
0.39962841105053437
0.4065874291828397
0.4435913092527696
0.4605034596336475
0.5167826716668099
0.5303769201720109
0.5700040169407906
0.5903728169949406
0.5907168115184557
0.5772046116962156
0.5666438868671713
0.5580746845246524
0.5426264864899053
0.5245756595338739
0.5250671307565804
0.5141549072574447
0.4929829411702376
0.498883017203818
0.4859860002272091
0.48933901802088126
0.4825221982858081
0.5040727501187162
0.4736627251812194
0.48306263688992923
0.4688570256192433
0.490244783989385
0.4606868152695823
0.48239473756631757
0.46272750465172335
0.49170685940828784
0.4674767350970379
0.4828014274752125
0.4765743845132553
0.49364537712947526
0.4735845022639271
0.49095248699771543
0.4867146455702784
0.4909149187127368
0.495235954864912
0.5037692336247777
0.5457998946329605
0.5681203109059313
0.563255979000527
0.6026289834534616
0.6378041166574506
0.6475528854068611
0.6404173104792605
0.6231274323324618
0.5863693543803585
0.45741871654368893
0.4431827109758383
0.4295501512853829
0.442348319794528
0.44236414787381373
0.4474861636886688
0.44659212512227714
0.44974347199747583
0.4649461555642144
0.46643045558876456
0.4490847302881078
0.46969253067303984
0.6982039970638251
1.0
1.0
1.0
1.0
1.0
0.8627915724093432
0.7016856148924641
0.5297243042703167
0.39017911687556683
0.3226196715830778
0.2991184801292744
0.30362880061932057
0.2978718579166567
0.30656633531304617
0.3068732578338903
0.32200687206520867
0.3076401345357081
0.3277636449860041
0.3196821838669738
0.3318783576506904
0.3085552574280972
0.3176420822862329
0.3159388398236227
0.31060268261746415
0.3246189982236971
0.3184625648208971
0.3272350755216301
0.33406282450620556
0.36273485906520875
0.3758487992694035
0.41160548197262303
0.44697843275013105
0.48439872111274174
0.49443162394445395
0.5542719603443519
0.5637776229538793
0.6028653196583331
0.5901528560553057
0.5838816144385979
0.5676553543149719
0.5688507139653183
0.5404431315683195
0.5431670620787051
0.5180018319125872
0.5083694551895845
0.5007459451011368
0.5074302264882535
0.49770491673844
0.5022785674178255
0.47402194200327924
0.4765378419298438
0.4897530976971166
0.4924790579531795
0.4887160599675561
0.4722139971230789
0.49013723507360824
0.4798372791018567
0.4915910315145937
0.4820212969431686
0.4906339735888026
0.47980576781098394
0.4961234804217508
0.49015932480055185
0.5020528171772611
0.47708533125580505
0.4967308294165017
0.4865413964623714
0.5097049350646391
0.5064580457535169
0.5559285737088985
0.558363910094793
0.5704315081621906
0.6164782035869927
0.6527224400532281
0.6777582351685147
0.6426375219514054
0.6358671341630845
0.5628465047546312
0.45846444824579946
0.43786406959261087
0.44655153574475576
0.43985661621592714
0.45129201891197973
0.4488907085275867
0.45655010628117554
0.45479248693953683
0.47405564321918775
0.4423877403461002
0.46176390903581394
0.648825215571343
1.0
1.0
1.0
1.0
1.0
0.8229734878531566
0.6306545680310741
0.43437665946416654
0.35606172972066263
0.30775019588608576
0.30347391997310147
0.2986021282215488
0.3164460322279905
0.32037102475375134
0.3301708507763833
0.3393362926629367
0.3430951209233422
0.33772750527142903
0.3375468632983039
0.3541135006817699
0.33207001834347005
0.3451716253495637
0.330250527501987
0.35074679228159666
0.34274448639074184
0.35286397068104813
0.3538301654954649
0.3765180820058874
0.4028113368694569
0.4367905646682765
0.45947753819079507
0.5150032162252391
0.553199671634912
0.5937013895709535
0.6079630979922143
0.6053537245463656
0.6032353691037217
0.5802253436265752
0.5710657878689599
0.5552969439432461
0.5491562004037323
0.5344716518758195
0.5309475925621977
0.5188054265528218
0.5106658937957811
0.4992025019384855
0.5151388826942551
0.501533707423553
0.5193985372373452
0.5014766887550363
0.5205221272443585
0.509581954034712
0.5217302466360212
0.5000205049752046
0.5188856056284752
0.5054315125673309
0.5190617273874126
0.5030943657347221
0.5134318882829838
0.5006423313634409
0.5062932448804475
0.5190951623286414
0.5082917657549288
0.5203606034379986
0.5061697106129374
0.5498162043024084
0.5928597530555153
0.6078534485720916
0.6112006804015805
0.6588540911298522
0.6746253409851486
0.7042258014739758
0.6673921457754346
0.6499258599914214
0.5214963129435968
0.4773872827845951
0.4485517418653739
0.4594087017932812
0.44578971425898234
0.45997671969583614
0.4565997721113537
0.4794308843451126
0.4910127219395294
0.4839663562423688
0.4718533462947782
0.48421502268690536
0.7598443078610678
1.0
1.0
1.0
1.0
1.0
0.912459890790354
0.6939979057268959
0.5262708623475458
0.3781314828147195
0.3244791043486798
0.2948487550901414
0.31824582396155165
0.2952394924325482
0.3059771229937007
0.3096837328925677
0.32331656317257385
0.3146682787169864
0.31853174374288223
0.32467854704515153
0.3245140362205675
0.3114394952248144
0.31895608359272337
0.3137646515929822
0.3243281528616584
0.32101968114246726
0.3230671252506287
0.34345310212748015
0.3474994321116598
0.38716178669703283
0.4136810241003059
0.45545715262876135
0.47728004118420386
0.5503593775155903
0.5626467196042929
0.6042763732503331
0.5982079326652099
0.6213927063202527
0.5951171198473705
0.5953033130773944
0.5673279098816273
0.5639293231504465
0.5273924195174097
0.5412770397801694
0.528353086986573
0.5237222833029727
0.5127678937163266
0.5183950590161703
0.5170514000796598
0.5062270679568427
0.5000675558109376
0.4970206176243795
0.5086939876842367
0.49369317267970353
0.4931277403587802
0.48177747519136255
0.49730326733299524
0.480843602794493
0.4987119784268936
0.4960082749644316
0.5088897045046574
0.4925528733173518
0.5106109738072433
0.48982114530868054
0.5052015886830712
0.49271618980452797
0.5015923063415015
0.5058401380408104
0.5259499394923196
0.5454944520650972
0.5855103347872291
0.5784084813355987
0.6220218001923035
0.6620995602382667
0.6741938179302716
0.6864332080562219
0.6503320713479057
0.6214239534484612
0.49617844030086083
0.45447554312209215
0.43994257542186493
0.45152313426569746
0.4478240743262746
0.46802930846383706
0.45227602057988586
0.48030825793222487
0.4574446262247361
0.5083426555521645
0.4701509794937766
0.5007180282420536
0.7319313474033825
1.0
1.0
1.0
1.0
1.0
0.9553914439560348
0.7263578578816728
0.532598529403269
0.39359185326060875
0.3381464505796027
0.30480215524704557
0.30789085364503194
0.2953904323655351
0.3106835900571917
0.3107477443188372
0.3308388630604295
0.32048243867711584
0.3300304755130089
0.31994069999803393
0.3370621808714419
0.3199150875111112
0.32974497255232427
0.3076709614622907
0.3328266316653271
0.3116861352786455
0.336031945738395
0.33033609609889153
0.34828893797078797
0.36836590771636624
0.3906853393041404
0.4047045864072708
0.44480337838663575
0.4800576089576979
0.5022636228401176
0.5456297776583522
0.5854304954488792
0.6125028200386373
0.6090107695451714
0.6241448886442578
0.5762639447196563
0.596260744752635
0.5538077245177282
0.5562700468657156
0.5271288465168003
0.5312868860194572
0.5161466931851437
0.5266160598895437
0.5042847893148077
0.523040297354225
0.5033516509495525
0.5167947385365954
0.49391508488540997
0.514746430646823
0.5060359459107752
0.5210609797594465
0.5178775038638277
0.5020737977299343
0.518977195353938
0.5028845938234032
0.5003449997225258
0.5015888093147555
0.49903100698334263
0.4943212086882739
0.5027613031160186
0.5000811371262661
0.5134969781339589
0.5360799432405313
0.5435420472012578
0.5542739046114162
0.5868895351219443
0.6234855551072931
0.6539826382917733
0.6600915400801786
0.7238630196499789
0.7309768468631292
0.7453943986713207
0.712899653871129
0.6890177579482993
0.5620378066791357
0.5114217270483541
0.49155784065453173
0.5086094404454711
0.4978770144199839
0.5026609211173063
0.5123402345023819
0.5157062403318898
0.5389159488861331
0.5345233705120149
0.5243186421368187
0.5454792942892299
0.9318850143358912
1.0
1.0
1.0
1.0
1.0
0.8882378461146467
0.6563320774929501
0.49569088340996653
0.40348259381909646
0.37156921258436
0.34326538240442184
0.3217078093063098
0.3555022165822802
0.3669300719810633
0.3690843701160308
0.3547356554977895
0.3581744503919372
0.3473593481131697
0.3512990908866561
0.3552666132702774
0.36222277642178036
0.3671150341448903
0.35882756949980565
0.3387324291082027
0.3638558749965738
0.3391134537410453
0.3744720267800173
0.37389647766583645
0.41160778125752506
0.41160958019264804
0.46457260367364117
0.4827150117226129
0.5358323635835474
0.5622707991229444
0.619640987617896
0.6269950444007971
0.6475041710262498
0.6350690885023887
0.6438406136503834
0.6191791054023547
0.6069178669450632
0.593719956703109
0.5840458084002131
0.5665106249445848
0.5877630493538482
0.5715552538166135
0.5463145699345008
0.5361899563001513
0.5438697115721831
0.5627783958402193
0.6129548226681192
0.77008299220736
1.0
1.0
1.0
1.0
1.0
1.0
1.0
0.7262384098635959
0.34761420989881936
0.258760638802238
0.21083644402325147
0.23069425077539915
0.21599032216627548
0.2216451089948579
0.19948461931941455
0.16667538681288857
0.12073964860399906
0.11031371944060671
0.151504853811895
0.1343296880535659
0.15197586504451532
0.20827063051144434
0.25560537773602926
0.24716693066610396
0.24019544808520102
0.23034251552558443
0.230167372841608
0.22224540179888513
0.22062056010950237
0.2357922417691904
0.23882432638029857
0.2488727663198568
0.28757909716031044
0.31161338376704695
0.3630683893540512
0.4002118246474346
0.4509447888607748
0.49304703884593726
0.5407219254736295
0.5640988357113448
0.5705727864174919
0.592490691036435
0.5824281412243896
0.5977437030393998
0.5940476478711846
0.5903649869012462
0.5845609878978361
0.5927057387717285
0.5728145136332169
0.5864366008253677
0.5612889719324158
0.5868640241195134
0.5624938460592819
0.5785331462854962
0.5513217538595
0.5710100287446649
0.5507797757776074
0.5425320020721649
0.5242649062473574
0.5443165687263831
0.5259991517424705
0.5206824915763624
0.5158632039623552
0.526579686571261
0.5218452811761485
0.5204430898227347
0.5373926842677523
0.5211951397578805
0.5232993240284232
0.5101932842633378
0.5153423252341977
0.5118830797707812
0.5154710546767286
0.5041055677061425
0.5096440804207122
0.48967400688068263
0.4987321332497294
0.48375108232458575
0.4981122677593797
0.48695746439727605
0.49122517701684865
0.4937426969108782
0.4929828545403625
0.4931244817907062
0.49855475069619526
0.502784340608304
0.5141678840904508
0.5112515018897079
0.5097169595109399
0.509446167132825
0.5024894688961955
0.5043921992352364
0.49857998989031005
0.4988313461274513
0.48281925581136076
0.5000085429871589
0.4811947070161528
0.4929159831109734
0.4770347167634748
0.48843003216855
0.47671915881589894
0.5047957569859738
0.4725735555825879
0.5013629255405511
0.4854591480529146
0.5047298287736439
0.4993506082228022
0.5346012550252568
0.5827857079510127
0.586682082730331
0.5870377011296473
0.6517925245245557
0.6440563405597198
0.6763073798539357
0.6480228719550255
0.647670605700557
0.5940643823372822
0.49156578650115473
0.44820316734075377
0.43862832830245696
0.4344859422693069
0.4437189988782849
0.46012331319660066
0.4609049143357627
0.4663508229283503
0.47187828323075154
0.46913046638055295
0.4658988277169295
0.5724849379549137
0.9482260476560768
1.0
1.0
1.0
1.0
1.0
0.842097241462589
0.6467529131569971
0.4551608414754374
0.367276772032535
0.3177886315721776
0.296871045492921
0.29662403412211835
0.30097209728970575
0.3080927824996156
0.3107545140155528
0.32968063418265076
0.3245356085302129
0.3324623532422327
0.3216312209268743
0.3353751836771418
0.3214824185043691
0.33529283939093457
0.3333473917629455
0.34969452741268536
0.3482430091623708
0.35907383431790396
0.3781283199020833
0.4145345667253307
0.42797876430703496
0.44955899399254556
0.4843159658524658
0.5149556932437289
0.5356868021220149
0.5666104914478753
0.6042046639087022
0.6301907893556395
0.6541453993804266
0.6695148176094403
0.6768985872244062
0.6624861078827181
0.6412215708054669
0.6192093587327712
0.6038343586051186
0.566599887980581
0.5527626105136899
0.5114444851978297
0.5178211855167002
0.4866363192084423
0.48277194537102364
0.4645730588700522
0.4555725626396166
0.42894799870411643
0.4437477696472518
0.42783541265709885
0.4344763830558094
0.4131494297469631
0.4272091078635186
0.41674873941448476
0.41998777196204945
0.4151810157356409
0.43134225872416804
0.4286782847435925
0.41953255251750043
0.42311063973027857
0.41515407936705345
0.431350330354635
0.4222123779570978
0.43754299126415114
0.42797807411258704
0.444076334465763
0.4377493335446171
0.48564325258643226
0.498807777650233
0.516078472688429
0.5264236640985558
0.5822192771006585
0.5945279503827422
0.6178015113516613
0.578642377816575
0.5548216237503557
0.47049508367601456
0.3864465223438735
0.389306613056602
0.4054956593091468
0.39784122087615953
0.40648062781246397
0.410910316844557
0.41377480313814263
0.4302153670262693
0.4162005771886596
0.4352271117610494
0.4341284246534035
0.423507162091154
0.5501067880099224
0.943577905382635
1.0
1.0
1.0
1.0
0.9828560986703604
0.7613657309570641
0.5870502779792701
0.42764472854935087
0.3421571695745622
0.2922861973642061
0.2823465065487269
0.26639416174095365
0.26958890315591916
0.2779781645272775
0.2957249830461769
0.29313669479954046
0.29480594332699184
0.29745412763678947
0.3062837840964527
0.2981999579009596
0.3062772334679236
0.2900888053786794
0.3163154946618264
0.2950688825895334
0.3116105298644721
0.294991580423574
0.31308476047920053
0.3083874090012584
0.3360488982202197
0.33102510750705794
0.3800404641935008
0.3695584807704356
0.40869657818399385
0.4270397603011739
0.4675019878717247
0.49513038562725287
0.5235066212203829
0.5283447140955342
0.545871063683869
0.5267931574679281
0.524362141348717
0.5042678724985385
0.5009340400172989
0.48886729340568225
0.467575726791008
0.4866493613977264
0.47485822532548905
0.48334057373253947
0.47006931469462876
0.4854144817414915
0.47650109944832264
0.480357706041846
0.4688818550183324
0.4758437328157754
0.463294441034625
0.47675945316543766
0.46682761669448053
0.4844970285219385
0.4644554904876445
0.47188363311792536
0.4699244481920025
0.4723404869603739
0.4717067246532186
0.4809562102784655
0.4775439961480707
0.47096049764688813
0.48348701356562324
0.4915224084912446
0.4971758619320787
0.5063759153902498
0.5614807889086366
0.5609966657472085
0.5812461399173152
0.6140014747164383
0.6652103711014435
0.6571810203571103
0.6504010056163496
0.6201871593405441
0.5543988093333216
0.4653888864764076
0.45927339816674284
0.45476931682665445
0.4704503885138859
0.47174303313978855
0.4951216495321854
0.4850862158348571
0.49938270241217275
0.510254736139925
0.5037847194508618
0.48059469618946277
0.5575665423418922
0.8940746901432497
1.0
1.0
1.0
1.0
1.0
0.8362970697877408
0.6855419517795945
0.5409307076000036
0.42428428434796367
0.370267059250838
0.3477171183087534
0.3491327494844882
0.34477244176933486
0.36179606632831646
0.3588329659709622
0.36214046383260323
0.36691845454688976
0.37048129841580685
0.36767740710540603
0.3645169034005066
0.35176128359119474
0.36884479010356874
0.37121495578245595
0.35481099815498535
0.3697539617650163
0.3613102140951828
0.3696272319437048
0.3675884629113698
0.40025578036671394
0.41573134641680876
0.4384462466986552
0.44320835864500524
0.49459310600597445
0.504700144503458
0.5451542459680703
0.5632795381321819
0.6049488220298965
0.6149916266675014
0.6307716525604679
0.6128884156335548
0.6197332477147662
0.5915725880110281
0.587651903499925
0.5674336128948966
0.5735490379079725
0.5623320848519415
0.5519440077859988
0.5547823728901282
0.5402871936201645
0.5457282982169479
0.5377000006804807
0.5328972988985875
0.5414522278867473
0.5377603179935695
0.5391893282998841
0.5412454462315397
0.5432261089538326
0.5513016053213112
0.539060206167737
0.5405773344213703
0.5205669327605197
0.5384351593009494
0.5247716036497437
0.5375839139673821
0.5168603331179746
0.5290706660712285
0.5218151523506738
0.5245957026763834
0.5402136755966697
0.574376328807502
0.6224489715006466
0.6352341706255398
0.645020376005894
0.6982521003525799
0.7165245544778485
0.7328774494668446
0.7172391551363673
0.6927309252483912
0.5962324550069946
0.5192310658804962
0.534922835212023
0.5283100927145378
0.5522825622984154
0.5346938076949244
0.5490088531374002
0.544232974759144
0.5568625828969417
0.5318432695610774
0.5404703629671702
0.5087112732273018
0.7058956926265612
1.0
1.0
1.0
1.0
1.0
1.0
0.8386885183414314
0.6429638281157064
0.5003258772579995
0.4313389464751388
0.39875402365943646
0.3950095229686167
0.38480022044300577
0.39720761542789706
0.4226284263347967
0.4311211967055629
0.4372897506989971
0.43208180945026714
0.43847880965736136
0.4109928158259688
0.4320449081946306
0.43299080993986544
0.42253369478313274
0.40689749161586014
0.42451467830924494
0.42776636233858784
0.43286077738132545
0.4115628326971918
0.4641017666625764
0.4452939082077072
0.5066089323537175
0.5381211970841154
0.571429754168974
0.5735069511580899
0.5960784684850725
0.6142892207541206
0.6465530068706113
0.6577086960929213
0.6372052562424583
0.630854790603388
0.6226571058254862
0.6191049352301159
0.5726808490430122
0.5976901897753149
0.560660950592893
0.5862079715506878
0.5695128095997778
0.5798778263026092
0.5681621171116196
0.5694981211071057
0.5868753369767653
0.5789590671534351
0.5854488647808699
0.593626712742853
0.5419383736455331
0.5675158271769258
0.5610767902590819
0.562880641412764
0.5567870796877077
0.5629253905196212
0.5617450075540809
0.552786168712453
0.5482177853431749
0.552111840404741
0.5595554559848112
0.5664082327044262
0.5614178533764365
0.5547200050635994
0.577759544739197
0.625394753119409
0.6413009507916511
0.6447706629085594
0.6953091038011017
0.720087494066113
0.727022367072834
0.6925343630035276
0.6574881884197982
0.5442258873179603
0.5137473869559346
0.49661364993079254
0.4825532758246746
0.5078411451155161
0.49936246354206215
0.5119663652180938
0.5033875937169817
0.5231256210433742
0.5324926240486775
0.5204516662426271
0.5947520249210018
0.9747842281665171
1.0
1.0
1.0
1.0
1.0
0.795181963921588
0.5786682493207328
0.46574512727721357
0.3966039622496399
0.3879754138609155
0.37547710307479754
0.38787048738377583
0.3991949180000479
0.41131526684198205
0.40297602275352495
0.4099146811258437
0.42299598885993833
0.4146104533098696
0.39876431071935015
0.4221786357135409
0.42898981207076015
0.4244618406846733
0.42142131931884375
0.4145198595885081
0.42601059326039287
0.42798850324037485
0.46875535265010815
0.46954475670893325
0.49927282049909694
0.5157317301471653
0.5740194722585364
0.5793968198279104
0.6327299299999712
0.6561798715442613
0.6609404713596512
0.6676028015628435
0.6587755063018732
0.6316106629459876
0.6013052911704212
0.5972128292223547
0.5975179342615443
0.5711341362770335
0.5781397451802698
0.5720663809623464
0.5822358075831437
0.6054934765923261
0.5758580768731565
0.5930911874728136
0.5760319474666388
0.6001992241881112
0.5683406764956898
0.5874552049958942
0.5632330052661157
0.5773021421952677
0.565819280677035
0.5653515490645475
0.5527575334870156
0.5570516744478724
0.559206070570331
0.5657034910431318
0.5444954521209
0.5682760206760855
0.5462532202029917
0.5574817414777431
0.5665331355589391
0.6088554359733184
0.6152753994629239
0.5976307035625708
0.6295850308565403
0.6772535479937458
0.7053343709519412
0.6703691881174864
0.6567613464708588
0.5738272855187362
0.5146842354939758
0.49583813646430885
0.5092834769517182
0.517822594893232
0.5253923536844396
0.5087072095950766
0.5316455563614858
0.5249217895325665
0.5490125011089543
0.525556012445113
0.5130648458530909
0.6681190972261539
1.0
1.0
1.0
1.0
1.0
0.9200258414957514
0.734276764409986
0.5965381475163578
0.47784983725554114
0.40120834665257954
0.34770071524032636
0.33727719367788234
0.36378215741969494
0.3652405581811139
0.35453234335786366
0.3589250951286061
0.3532755292419825
0.36126992952563874
0.3539572304885157
0.3786136390975465
0.38381999478200846
0.4080697507332305
0.396868260512884
0.3980279992770671
0.3790030728317383
0.40169739534751364
0.39322658577239766
0.3940696579848388
0.38919251217654627
0.40247181036922886
0.42939895292983205
0.4331716030190756
0.4523148834024996
0.48565031208470977
0.4934800456268052
0.5197968098550136
0.5236494806578931
0.507273394037086
0.5097153947162214
0.4999445766099517
0.4918672674982926
0.5000462485229591
0.4972374689418239
0.49349244452228713
0.5121606774011471
0.5066844303660566
0.5334363740160042
0.5065007824105436
0.5176493714389852
0.49660802215403155
0.5141377613741454
0.5076856682053934
0.5110962627409896
0.4848492998066588
0.4817994012378164
0.4728012167146097
0.46940371817460147
0.4670434296941462
0.4734774001180762
0.46497825716229524
0.45504475620033025
0.4793350176394708
0.46594100119081344
0.4868861408024919
0.4907070754792417
0.5401103187405958
0.5358103283059046
0.5526048327644599
0.6027639040031185
0.6507335943428985
0.6602155274806365
0.6354902966785267
0.6124139480232789
0.5428344050256674
0.46391670146142916
0.47753803999187205
0.4623251863635421
0.47754945449157526
0.4713065265867315
0.47124497604102017
0.4899926950065144
0.49346185675975446
0.4913031795605258
0.4602203453335524
0.5431065721750212
0.832605850085617
1.0
1.0
1.0
1.0
0.8998789440207666
0.723679434395293
0.5850270383343306
0.4596581810008985
0.4196213084660069
0.3728328346135358
0.3770960455096339
0.3533523113838618
0.35977139625344856
0.37770167694354545
0.3849962727171616
0.3867269050225035
0.4042302277706801
0.4083719449218429
0.4306957993113995
0.42041154442771145
0.4202931692253998
0.41234328449130714
0.4019902390100869
0.3949695521335165
0.3999989819796463
0.4080543025841588
0.4138662597818607
0.4385569479961945
0.45266450493706883
0.48844159244243607
0.49567152076956217
0.5322062015796153
0.5527514062810098
0.5818583105895161
0.5822926498598414
0.5953103151983588
0.5964721573355106
0.5920425688368168
0.5659054422854627
0.5806135510670685
0.5708931634563975
0.5708909061339952
0.5618984020939197
0.5619341373136812
0.5588713480993907
0.5596975032505065
0.5507453064641822
0.5485445521891787
0.5500524558673171
0.5440646103267824
0.5557135421540778
0.5505011732027106
0.5566019583606279
0.549998886529354
0.5523473622986776
0.5519040923531366
0.5612510886126841
0.5481834320142608
0.5594675011752712
0.5457015414551265
0.5471314370110263
0.5424207104034109
0.5626896221006256
0.5570121889506968
0.5668262446317821
0.5610212832402012
0.5740347677009563
0.6176496283876161
0.6436428507832532
0.6316417685215979
0.6672710353431202
0.6766591252564167
0.6904370489640392
0.6908164028108909
0.6669169075456219
0.637749539936126
0.5317467877140706
0.4896231489616872
0.47874996833250727
0.4841974184456321
0.47005102228036594
0.48690537493977215
0.48246735760965453
0.498694099159455
0.4841637920073364
0.5111297068872749
0.493993322143467
0.48660945872838895
0.5539331402793886
0.8587922370931489
1.0
1.0
1.0
1.0
1.0
0.8404124290631785
0.6767961167554531
0.506718748584476
0.41497379779827315
0.35059280865720494
0.3307388741428448
0.31057654303799637
0.32630133336712647
0.3191706096914054
0.3425365725222419
0.3213620646293964
0.34412562590171347
0.33204022682860856
0.338724202415057
0.32884014770000736
0.33791768313825854
0.3344561649614563
0.3475440436749494
0.3239579951595976
0.3529523917898718
0.3415123907234038
0.35661954144570207
0.357576283196887
0.37519607835385216
0.40503304612085467
0.43282720783056644
0.44470119235621075
0.4587127892924485
0.48317121097521837
0.5101231520422382
0.5419963357005648
0.5598353937447196
0.584655669827519
0.5795430921873225
0.5838977104237085
0.5635745279718286
0.5533775527735121
0.5321844331598136
0.5310308311029992
0.5048851524476847
0.5082353440863661
0.49316686296993123
0.5012814023427719
0.48951754341617093
0.4857816634000396
0.4802620083193735
0.475014043087845
0.46921955099179347
0.4709737314839887
0.4645595546401139
0.46340972783898116
0.4628605905382388
0.4687600140200351
0.4728287093424509
0.46021039275195436
0.46847856710046454
0.464708736872419
0.4775908320169545
0.47049587265752146
0.47894050660409737
0.47638078296863123
0.4883977399498377
0.48127768648697256
0.4991408718657568
0.47870686386976047
0.49392842090863365
0.4978235910127301
0.5293983224527118
0.5502826546199248
0.5569477432975998
0.5800737102358122
0.6204460769853406
0.615731390840019
0.6259304742878223
0.5996149671665117
0.5792559809573523
0.4982746246718473
0.4434184343124528
0.4281671604315943
0.4325097322145113
0.4361701856802183
0.43307358119155603
0.45238156816998015
0.4434366298617672
0.4656854186552241
0.463722162977794
0.4695415271005854
0.45537709585327135
0.47372667927874473
0.6396080197078341
1.0
1.0
1.0
1.0
1.0
0.8667377529850517
0.6913185694188553
0.5243417507614427
0.412875688470337
0.3493862118625578
0.3207981654936585
0.3084970251139471
0.30605954222158926
0.31628086229191393
0.31471112215078073
0.3256178918155005
0.33241991026710294
0.3290800924391917
0.3194782984683592
0.3361827738384184
0.3204610094958987
0.34399906700820715
0.3258175683199716
0.33814450647045863
0.3277335197042738
0.3401824028819191
0.3443605953396134
0.36679690711310126
0.370307270972517
0.40605473617292887
0.40308737171054076
0.43199160987179636
0.4675710972517659
0.5003244589230825
0.5271656510462202
0.5518315029091583
0.5611139166269659
0.5557693697572221
0.552497268811394
0.5362776656110639
0.5210391428718899
0.5028159557828126
0.5038189022725764
0.4881093752491837
0.4988374415198679
0.4721508727884662
0.48409624950812125
0.4694490789508925
0.479568835715601
0.4635799593944589
0.46618484192574516
0.4666972126787433
0.47012362389550366
0.4495383965438913
0.46295139440861927
0.4585147705780936
0.47637193362207525
0.4679624986975502
0.46745275451210766
0.46709083975522014
0.4721730126694097
0.47714996761046
0.47667540125513064
0.47485619180204386
0.478451889958312
0.47866627378831905
0.4762523488194856
0.48964787186765923
0.4871960063894022
0.5224854316884361
0.53334477457687
0.5436356702695411
0.5649121339161208
0.5945122303581196
0.6107956562813712
0.6228102864356824
0.5914885433786352
0.5941955443704634
0.5091451950281884
0.4548648438341195
0.4492770213134878
0.44950705760248955
0.44948958506334924
0.4513094852362659
0.4631102674381918
0.47069626690041366
0.48152012796628796
0.48163971739941347
0.4978010991499232
0.48614299092043983
0.5294138106975034
0.7427649928927206
1.0
1.0
1.0
1.0
1.0
0.9342254988527934
0.7441064919209884
0.5758414018766493
0.46835538417874034
0.4108712139626042
0.38881344082249336
0.36493161664038254
0.3666707782417403
0.37835930110374755
0.3897189930577668
0.383135792809629
0.39045964556436735
0.38543232361746915
0.38639418631474615
0.3900359238630372
0.3828968312150621
0.394246430428377
0.3820958664829278
0.38878363720337905
0.37778162597505904
0.3916472200439789
0.38513592882556785
0.39594666095676956
0.3911615087708768
0.41690560895299933
0.4304453191723384
0.4650344310027027
0.46942472420305553
0.520029507651919
0.5353944520480932
0.5885535226154242
0.5984157714783134
0.6033860473834926
0.589893116408288
0.5893190594255816
0.5745219526114936
0.5593833216552393
0.5455475131404326
0.5446632032314814
0.5357828421231654
0.5451867825861345
0.5247075179715754
0.5243851369683633
0.5359542989180636
0.5238548124497393
0.5266230606419436
0.5142315950475584
0.5274534336476989
0.5153658362853456
0.520760781461295
0.5109606600883743
0.530145582192499
0.5126682000430804
0.52074489862519
0.5135239732137704
0.5370530505205136
0.5131029566483086
0.5281709491530772
0.5235865575154126
0.5383790009295314
0.5308816017266111
0.5429440926492445
0.5401941608571121
0.5425604948829098
0.5756743801215638
0.6086062236848708
0.6074525577648533
0.6188740994863688
0.6598093055394635
0.6770649261776964
0.6747084603483678
0.6489664275042866
0.6354567451749518
0.5289403241207113
0.5027075065099886
0.48426217908234853
0.4933268941635459
0.489189709391529
0.5080659797101975
0.5022798917635021
0.5194097008548032
0.5123315638855432
0.5384435778271319
0.5122736147569369
0.5233876081493675
0.6741376063604549
1.0
1.0
1.0
1.0
1.0
0.9665545071429481
0.7749731746715274
0.6242492264684725
0.49411488586232144
0.43156392660670423
0.3797709855662804
0.3793010346744472
0.37223014195268656
0.3859675479613216
0.3852143903228818
0.4103603433372115
0.39382377307645966
0.4025387093765801
0.40294574680539774
0.41065256712962545
0.39734382642863453
0.4089671206858744
0.4030267526891832
0.4195579764672515
0.40406165951443984
0.4113536984941405
0.4144569497376775
0.42386367470459013
0.43396218142187043
0.4532311472850828
0.479495356464934
0.4992387440098935
0.5263332613493857
0.551869078119632
0.5853520706311303
0.6128250484996498
0.6353520041514494
0.6316789711290492
0.6506754430794155
0.6251657653615373
0.63550584433186
0.6055667943620252
0.5972577449529097
0.5757241554440731
0.5815536400741561
0.5657523101789983
0.5678245029385691
0.549082356927427
0.5558037394470344
0.544186850347183
0.5426787328213394
0.5356018827093166
0.5380281531123654
0.5223090015074285
0.5173836598935438
0.5190643802659405
0.5194714893507965
0.5272251019714808
0.5177547139696534
0.5313086738183437
0.5238960542622102
0.5328887156929268
0.5189018619297051
0.5336747118757794
0.5355773086476876
0.5512003095944695
0.5187729540594825
0.5389934494249854
0.5223397782734482
0.5576794124788936
0.5826677423764708
0.5941704540144818
0.6137186372415286
0.6518439342775849
0.6708342068530178
0.6891321399316681
0.6487865957603892
0.6313630181903689
0.5442616213799825
0.49031865612108716
0.4887130374824607
0.4810021236347043
0.49258706916843487
0.4998153197674558
0.5016555628311227
0.509416890542804
0.5233646223563005
0.5199133082767192
0.5262862793272962
0.5336076876078665
0.7756650428149067
1.0
1.0
1.0
1.0
1.0
0.8287825901001582
0.6725792918730853
0.5322425325474638
0.4391399118319824
0.4021169646909958
0.3853607347433366
0.37498549633692585
0.3835594168224802
0.38157826516870286
0.386522148205095
0.39430457273570596
0.39695714944683835
0.38652287638056804
0.3982948748341951
0.39229739657065943
0.40327473458549257
0.38590638642979225
0.40825632352088786
0.393942095353829
0.40646552298354743
0.40513594185361484
0.4095341413129109
0.4280555672109287
0.4438596014758086
0.44756587452770924
0.4808431415221306
0.49505099642857003
0.5414496836975415
0.555773715173811
0.5945911044972851
0.6113660692548027
0.6200930527002745
0.623068636825577
0.6089228001661031
0.6104056486716284
0.5835056749472407
0.56745215814565
0.5568650378849667
0.5631404194759166
0.5381268430550955
0.5402887085203003
0.5276794699675952
0.5361983606238125
0.5169033697568334
0.5357205558445751
0.5078196381895078
0.5251754600947998
0.5070098578702253
0.5145769989573139
0.5136113529998757
0.5235186541902259
0.5137642896857627
0.5220029558217005
0.5217870474870026
0.5338832998416425
0.5267941271498585
0.527730456222471
0.5296344088796665
0.5347458839167936
0.5446239949089574
0.5316377119273487
0.5382213207120736
0.5427298745123967
0.5774457163664829
0.5969888708432791
0.6014318769238085
0.6196854505791959
0.6678244285122604
0.6831293420713327
0.6910035790188357
0.6626700473000491
0.6500793260158109
0.544079804381075
0.5259485457810256
0.5074494199151467
0.5308735929220179
0.520375446650794
0.5364576998964257
0.5340071178206237
0.5580368315595688
0.5570405661315865
0.5592575464753137
0.5826079657425524
0.8549529714344016
1.0
1.0
1.0
1.0
1.0
0.7749393960586402
0.6215252964768488
0.49409820945419575
0.4686913379151815
0.4230679900454777
0.4237340020720225
0.41948252527028523
0.4308558714240611
0.43085924125009906
0.43089761419441064
0.4240437648772534
0.43437055021147486
0.42032403518515504
0.4316801526843122
0.4279062781891671
0.4332237738248931
0.425828535690931
0.43778736383632405
0.42447662161333505
0.4353337039847368
0.4469430674184335
0.45170348157425755
0.47553138647261656
0.4993013052784563
0.5262820115529597
0.5517909694342371
0.5931187571780414
0.6153814439994939
0.6535983350210046
0.6420696328457167
0.651019905936703
0.6238363743884536
0.6202599102768053
0.6028048360427631
0.5934282126822057
0.5779223383865675
0.5741889282384263
0.5667274636660627
0.5701420132310839
0.5607852550887253
0.5612011442814583
0.556659349139546
0.5623489102781549
0.5585325291705808
0.5495714718235666
0.5533015914200191
0.5507931699931538
0.5512954988805461
0.5473355452341312
0.5601087577958388
0.5468012806232418
0.5539961315133961
0.5531867670843675
0.5649085728030478
0.5433611125037371
0.5661815297452076
0.5660865786145998
0.5815529306045536
0.5644887836566987
0.5773547061011285
0.5896705772493425
0.6363688624174071
0.6279902625688789
0.6598052194420893
0.6805652187316772
0.7029787729767198
0.7115696372736725
0.6929832561091146
0.6588955597143873
0.5780294654888762
0.5139116946787292
0.5148846635032238
0.5193802320619343
0.5133770234222825
0.533044602913767
0.516055107165049
0.5360730757561052
0.5334118554351016
0.5487048380986546
0.535837097380625
0.5700619398590026
0.8012653386725663
1.0
1.0
1.0
1.0
1.0
0.8761988922535965
0.6924389660326593
0.5161397298808481
0.44200082613195796
0.3952373956067371
0.38995738917909606
0.3873877826684242
0.39228490185814213
0.3930491947118725
0.3932300729114192
0.4179852978763748
0.4050312998220555
0.40924995267615205
0.40414178872494944
0.4116015694810149
0.4011764926023373
0.4143999385191199
0.40980147593690236
0.41099471033316093
0.41269684199412937
0.433965566500511
0.434460577124015
0.46198975292555106
0.4854743488370773
0.5264100406078492
0.5387891073748788
0.5739941941934223
0.6074090215082869
0.6432941006729268
0.641547795410586
0.643892727130655
0.6425098858321373
0.624506354634818
0.6207895604712916
0.5945272841716748
0.5835837063937648
0.573476158473782
0.5642608845491879
0.5533064554899668
0.5649051134372869
0.5506348405525445
0.5628847239543766
0.5445015223551614
0.5596390898583015
0.5486364174611351
0.5550717609488538
0.5420316462979419
0.5605542062405923
0.5462730242426244
0.5652238160196852
0.5495505545940278
0.5582053299695657
0.5446063724310181
0.5535728915117548
0.5567487686784731
0.5601026287880962
0.5585206645775006
0.5703745981559463
0.5610029026228348
0.5658912842878681
0.5684303152271827
0.5796672983461825
0.6375736581106167
0.6304938999987058
0.6424543808553731
0.6776873548249487
0.6928037088830451
0.7080415060694352
0.6975505755485424
0.6744183909159723
0.6021926271567446
0.5283296206104031
0.5228760954669723
0.5089414469476032
0.5238004576055992
0.5125407968143206
0.5273986742594879
0.5335173503387705
0.5489543651353055
0.5542907771354127
0.5544469053378963
0.5523819488258257
0.6119284084911187
0.9137639422413247
1.0
1.0
1.0
1.0
1.0
0.8545948798963614
0.6899019327704933
0.545494950915363
0.44670980742522753
0.41091276673759636
0.3930245457198396
0.38437197975597953
0.39666926243059974
0.3997054903507481
0.3897204014288482
0.4107082975180102
0.3986070441431332
0.4238524286243803
0.4098571043045629
0.4038412962755092
0.3992259324285013
0.4042727563830062
0.41105553098305575
0.4030491626373135
0.41066695301529654
0.40921594834868297
0.4166977708427361
0.4215266296487214
0.446304182224058
0.46456796134164746
0.501164558177804
0.5208415578974253
0.5645060094199982
0.5816092910860636
0.6287156015860715
0.636922475171784
0.6594470636838695
0.6515011522684656
0.6468654079681352
0.6199821843832222
0.618138487770516
0.5960368483925056
0.5907464048959199
0.5711441338667345
0.5699203707293787
0.5587098479164426
0.5671541651566001
0.5579580902461005
0.5536838876153043
0.5614248319951306
0.5494165435286736
0.5491517376693685
0.5496045673103511
0.5558798559604078
0.5519135197295545
0.5471646025846131
0.5548730043312669
0.5580479659873715
0.5521418507955289
0.572162555753012
0.5593132465198101
0.5664559313085664
0.5533381138945834
0.5680196612248533
0.559466064432374
0.5655865801622361
0.5687340789879146
0.6001204167169969
0.6258709709783438
0.6336617858495355
0.6720927946494891
0.6915402104912945
0.7113613948125395
0.6936539166545999
0.6750406548909581
0.629405273260397
0.5355078132642485
0.5216502907808225
0.5410023930801248
0.524235993382026
0.5348787632075467
0.5254152120136231
0.5422058182729659
0.5370464796556201
0.5578318054455103
0.549978302968685
0.553209427817042
0.6288469161589113
0.9790559249467161
1.0
1.0
1.0
1.0
1.0
0.7907368427628223
0.6395540504494203
0.5093588168402404
0.45827755713028073
0.4219902243613978
0.4118204309864765
0.4048120462748913
0.42072222201459547
0.42164827737699906
0.42062225618131704
0.42515887101983363
0.43226768155669343
0.4237675678873657
0.4370508336193863
0.4115860590914144
0.4255260706448822
0.4202679377925097
0.42616258759448866
0.4077479077555508
0.42325088419988754
0.41363365913983213
0.4391125516315924
0.43388673473944933
0.4581373020641067
0.4777760295820134
0.4999430023660518
0.5221634169838373
0.5551143735271535
0.5781096629296678
0.6147265596678195
0.6252430298057541
0.6365997963640488
0.6359832831780914
0.6270738515048297
0.6247520079058758
0.6001378864307577
0.5974385919013183
0.5789843233664285
0.5694454109769505
0.5541935617391476
0.5604318046778695
0.5488119563719296
0.5601802750332457
0.5460126903747964
0.5539778244132224
0.5349508956526909
0.540340067419179
0.5470659230063525
0.5470047519119652
0.5401561395512573
0.5457847986026007
0.5392566597072245
0.5512197298080682
0.5397250384409469
0.5429266545660832
0.5539852976527573
0.5395714507886507
0.5462107143783176
0.5367234491672492
0.5536261579042531
0.5484760709670865
0.5552361972444306
0.5489508444614191
0.5640870802257332
0.5786312939537086
0.6082758360647795
0.5986880324861691
0.6562269981491136
0.6578322177560266
0.6991728322591714
0.6844178555762792
0.677456613080236
0.635157189166577
0.5508662614710653
0.5134251984496836
0.5187648742658764
0.5083050521146893
0.5186855088440498
0.52364684396923
0.528530620890036
0.5280108230244103
0.5367469042938204
0.5346760725871341
0.529957589093416
0.5888044046085426
0.8828307965432494
1.0
1.0
1.0
1.0
1.0
0.8166995700924854
0.6841803708142262
0.5414421636090166
0.4908350499271852
0.4598395212274555
0.4431564375387468
0.42886029351460014
0.4424788926162506
0.4328383078442303
0.4553254939771943
0.4418441952179557
0.447910878393541
0.44665655208246874
0.4438362389921645
0.4443934294964963
0.43747962420103637
0.43485321510877595
0.4251219983929909
0.43706303859297924
0.42843632013948907
0.42702025929388776
0.4283721698740324
0.4461626122369572
0.4546821637454686
0.48850249112267646
0.4876121411379585
0.5293055769576537
0.540714187851117
0.6002659060129705
0.6154507447944189
0.6531913084439456
0.6554389202439019
0.6634229089993655
0.6509069143159568
0.650784572287292
0.6223107505384193
0.6153080950674905
0.5883730050500202
0.5950065943302878
0.5885880925837295
0.5631222894975593
0.574128371797785
0.5706414386608719
0.5881273269007367
0.5723281236045189
0.5824928145318926
0.5756007780046134
0.5670925604461723
0.5613287096875108
0.5554840962281865
0.5785137943714751
0.5984337242707942
0.6445277529172597
0.7878218262883052
0.9860126029841142
1.0
1.0
1.0
1.0
1.0
1.0
0.7850062918669958
0.44217078553909034
0.4066465345318683
0.4004036723457495
0.4054871700264657
0.4263750916892867
0.418228572663317
0.3991757331420952
0.3733493170247485
0.34701641066069333
0.3587237448034647
0.29885754797846514
0.26461337175256694
0.27814837704575235
0.2621591573173231
0.27298321116818675
0.2634867083885087
0.26715433325696225
0.26191232161603295
0.24797221146193
0.25054976574010085
0.26717134797024944
0.26466218044500156
0.2822734657018647
0.2865101429007776
0.30884995868360077
0.336250735162215
0.3589020143651644
0.38800221392970036
0.41495849641610505
0.45811248263257653
0.4719235531339979
0.5198465171391351
0.5258901997155674
0.5505263893252368
0.5388859247867206
0.5579121373094507
0.5433370367982804
0.5635883978516495
0.550195950666477
0.5626047928183265
0.5538308638692362
0.5707005901265851
0.5495519311475703
0.5647027676876732
0.5479527636479948
0.5713504640563322
0.5604091620912395
0.5779072817877859
0.5637327832548726
0.5644102923275636
0.5596670314480472
0.5653271286273885
0.5617515714197912
0.5500212521102344
0.551352798443707
0.5601722906683095
0.5665610784846782
0.5483212214248787
0.5562793542502293
0.5410127713642533
0.5657129207275187
0.555228880502083
0.5693592843832107
0.5593543843612203
0.5605947333382626
0.5481436506956758
0.5640514675623757
0.5553025462831436
0.5665013151094354
0.5604712179707902
0.5644312388835685
0.5694787586244073
0.5581111315285544
0.559434951194801
0.5671536663874911
0.569562465079155
0.5654039878561755
0.5623541948178282
0.5485497824014984
0.5647976840381955
0.5589658086135509
0.5701899300366601
0.560063072830875
0.5711816236613463
0.5597494729563891
0.5733908912190576
0.5616676301981989
0.5797852825581199
0.552262413207837
0.5638119302351112
0.5523451787841342
0.5743024528215858
0.5594692365401436
0.5705677165266683
0.5605259812838774
0.583020516208667
0.5947705898818316
0.6505543531127609
0.6403687435522168
0.6601779285648186
0.6783242264069043
0.6932532896136885
0.7133601691415128
0.7039594597976923
0.6848402066639588
0.6330047783979671
0.5565591188530704
0.5225702393353698
0.5239870395692041
0.5165892701414143
0.5213058784470292
0.5293644334629027
0.5455632556827521
0.5369246022397585
0.5525344929775274
0.5489671802710475
0.5519713250810262
0.5715410545995258
0.7208705454765105
1.0
1.0
1.0
1.0
1.0
1.0
0.8141924416228423
0.6586752809538025
0.5247435805055731
0.4452248955264678
0.4160956621251053
0.3924558556921557
0.38623507779056926
0.3826463691212746
0.39453534822089403
0.3962103422420948
0.4081939143960394
0.4036436148145963
0.41887052088745425
0.3975922390225481
0.4145899052816045
0.40634393449972606
0.41271874803531433
0.4144709377325996
0.4191841206888906
0.4064557939524434
0.4275452757220625
0.41992832369460836
0.4302010371521314
0.45324736417393846
0.4722847534226212
0.4875456453881369
0.5153224794665087
0.5390313683110013
0.5883115264889061
0.6107154987752537
0.6389143081044054
0.675347463482219
0.6910135473810041
0.7249969985867859
0.7124026294250048
0.7224741216209155
0.6935693789344745
0.6862108925011455
0.6513922323711484
0.6309772256396922
0.6026725120096617
0.5847629269361562
0.5593159786308242
0.5638728240569562
0.5347111581235771
0.5491343461585483
0.5311135680575692
0.5389618492552909
0.5323871528141007
0.529096858753503
0.5311105109728397
0.5289330889327034
0.5267636242239417
0.51658035912178
0.52732707955358
0.5295218608715556
0.5312003796326683
0.5196454059611255
0.5428580141530889
0.5339594692330262
0.5448238238948493
0.5371176770470191
0.5471779112485016
0.5448569025838088
0.5731229290140402
0.6049080340682933
0.6306428834917
0.6338671247911972
0.6669011718419309
0.6822746245953566
0.7010143676646643
0.675779875127426
0.6554507432905259
0.5614668089106145
0.5099055735297549
0.4802781162124748
0.4722405958637144
0.4831222574795067
0.4937691319132106
0.4926439081014962
0.49646867633939884
0.5190466147941162
0.5137023130174604
0.513000794051266
0.48922046516805384
0.6001855770617903
0.9277377535736582
1.0
1.0
1.0
1.0
1.0
0.7695042529350248
0.6200070337662344
0.4540796956256085
0.4132920514380679
0.3684144586623329
0.3650567424025906
0.36511581430866863
0.37210640368918296
0.36983615405654346
0.3865073246680432
0.38145766816829385
0.3856367347704453
0.38171559376846015
0.3864212734415318
0.3900569593503964
0.38002250388976355
0.3868455663271094
0.3819150845888674
0.39288841667823426
0.3788614557704074
0.39062614190221423
0.40292013269816557
0.40745309428102877
0.42502663059076784
0.43951041650005707
0.42929855440775083
0.49559508449699674
0.5012134846980761
0.5424706191050588
0.5651740332362059
0.5839567219119578
0.5870836879717115
0.5834894105498437
0.5790427504324345
0.5576246472890559
0.5517191591902251
0.5240153631416351
0.519350926593845
0.5241044210701346
0.5214688925239874
0.5177141799528181
0.5213036295623656
0.5085801754767563
0.5231064040009532
0.5204843177086047
0.5279531127209425
0.5072697361147923
0.5332152226513294
0.5177690954438962
0.5310779260775292
0.5208264923108346
0.523511275832593
0.519795656634654
0.5253343972330293
0.5115026353306784
0.521520386076371
0.5129336299792985
0.5102181211914152
0.5084135984000531
0.5128254595641151
0.5064097218062801
0.5251448226495347
0.5614075733849939
0.5956865128774232
0.5935294054411674
0.612608998458629
0.6627287015210023
0.657492954553468
0.6440132583360305
0.6071268403984658
0.5413435890313896
0.4438023207880488
0.45371638497628697
0.43349931143044634
0.4632903137069221
0.4489831377871519
0.4701344069320713
0.4607606699696557
0.49627740346832694
0.4796088857044209
0.46956298207850755
0.46303880855771506
0.6806825954744038
1.0
1.0
1.0
1.0
1.0
0.7700060269501832
0.611098906432065
0.4400558982937931
0.3984075369875365
0.34302346366364767
0.3401725808453657
0.32854590988474597
0.3479183982706212
0.3394054724483717
0.3594026057629124
0.32699297485737794
0.35188867233478205
0.3471303913258839
0.3428029014003643
0.33628794009698637
0.36861362696336186
0.33701588152400347
0.34439768359402306
0.34061032571210326
0.3503671591443515
0.368226741950554
0.3847722975820587
0.4036527532672328
0.43520265845487993
0.4601960938877895
0.495530334711514
0.5302013643233725
0.5569387351939181
0.5929628511263172
0.5923887388727535
0.5945807503686407
0.5768552089048207
0.5801754613451461
0.5481793253905055
0.5334500374055254
0.5040615005455988
0.505625045586443
0.5006220573289978
0.51294276988823
0.48332604456866723
0.4908218179489604
0.49962564714721625
0.5003555270271102
0.4956778384165479
0.49770225632369663
0.49380879969412683
0.49642340340143115
0.4912441521112318
0.4846805103229953
0.4861339668117342
0.4716484322136837
0.4877464046478961
0.4865135763248737
0.4825251484327941
0.4722774520542309
0.48848241196581316
0.48112946979899424
0.4927094887742215
0.4847065752291334
0.4996782573608797
0.5469876622481417
0.5726659293281134
0.5689012437042246
0.6117986232594029
0.6212736006338918
0.6531357667380322
0.6066236730749183
0.6083754996610935
0.5090071613845724
0.4421334884158405
0.4273553465063804
0.4325571843350411
0.4355835696981475
0.4393905063579611
0.42990015227918155
0.44025131194500533
0.444927954856273
0.44917390219429915
0.43818572073145423
0.42587373471981416
0.6306932910161344
0.9882982005895083
1.0
1.0
1.0
1.0
0.8131038817096604
0.6349758950333942
0.4722255137531522
0.3808242451225584
0.3254514088916017
0.2937352633767626
0.2927371031485958
0.316296682684421
0.31071909614929955
0.3233248504905014
0.3222206571604352
0.329830007387626
0.3355021402367038
0.3269707691615325
0.326499429433394
0.32896736675967536
0.3128219872663481
0.3194423245077229
0.313819066109042
0.32077471423530907
0.31627069778811184
0.3509895999250355
0.35420059652683294
0.3812586332618279
0.3985291490658828
0.45354266999470916
0.46199185626398476
0.49567136862892747
0.5152077739857489
0.5374327946411867
0.5305419398046007
0.531497363910982
0.5180031561900417
0.5175871906088401
0.48633496576650737
0.4914446542375358
0.4856291106804311
0.47992001374646887
0.4697881119332651
0.46676152317283337
0.46079822076968185
0.45459573344520193
0.4604603129556725
0.4481548075023519
0.4603976008370355
0.45840804146691994
0.4578698321370527
0.45563269960329056
0.46207552439315736
0.4543208411473113
0.45092067875154695
0.43741654632565136
0.446483452500306
0.43890523323041586
0.45138361316893827
0.4400678938248267
0.4463839019670086
0.43341099361495805
0.43772360263710564
0.44333020614681756
0.4491527655538137
0.4920850569918633
0.4913368502568158
0.5064076676870414
0.5501048585495364
0.5770469466746087
0.5859553650859437
0.5719653052066563
0.5447398347856468
0.48435692191590274
0.39659148551473317
0.4083147775138019
0.3874415933744744
0.4176388768508402
0.40783067549259294
0.4229000307089552
0.4048984759321841
0.4320673983103586
0.42341975327395537
0.4198658221605841
0.3893966116148895
0.5954583228644843
0.9255658218603262
1.0
1.0
1.0
1.0
0.800640988320968
0.6706422679561893
0.49245398638477056
0.3807151152406977
0.3083897100125873
0.28797203212821126
0.27403125428844144
0.28212380550539684
0.27901457015091663
0.29308325429303106
0.2910170413816435
0.30550671966238463
0.2908703917645292
0.3117113302125859
0.298318399802553
0.3054011870041335
0.29119790062088835
0.30104037179063015
0.29261881750018015
0.31172169707114367
0.32147708622311805
0.3181891058139417
0.3347331623872777
0.3729692471723087
0.422753662521459
0.4403106002554681
0.4736782313808178
0.5060490231121628
0.5295646997866946
0.5397989066491748
0.5492140063918641
0.5373800993220119
0.531133273203607
0.4975823807333124
0.5026338988105812
0.492410303436412
0.49189535911506566
0.4659173909834527
0.47387378958827187
0.4642149862868317
0.47445100081489605
0.4741820538716298
0.48725048252338254
0.46813339645869956
0.47565408630446565
0.4630890718009765
0.47783122306282977
0.474309742185857
0.5083933118276549
0.47204778279410914
0.4562430262967016
0.4728692733671875
0.46008577333680867
0.45540557100780443
0.4595372966826797
0.4613387415805275
0.43734552785733377
0.4611433487195814
0.45968622334823567
0.4954372931111097
0.5321816399701558
0.5270415541416511
0.5601657283683318
0.6297058599022326
0.6730004813269281
0.6643827117243032
0.6159851167024286
0.6002374739352783
0.5005049377750541
0.46026903445940004
0.45574651757030765
0.44825071202202754
0.45009750179232677
0.4463950784420798
0.4567437149004528
0.45545863871329323
0.4695574513730863
0.4748901674193265
0.44917168567997756
0.48336249075746124
0.7378168892765107
1.0
1.0
1.0
1.0
1.0
0.815190861157693
0.6552425385348424
0.5139770351202293
0.4173561773396163
0.3651029117503944
0.3329284872454944
0.33176169886593226
0.3326098223212654
0.3458963909345524
0.3358132013458891
0.34308186727170453
0.33067196894280493
0.3467855892547001
0.35678212770132484
0.34554610889352266
0.35434874460344706
0.3400329080216567
0.3494372285390634
0.3421481976064223
0.34524149604168636
0.3302783761279487
0.3352076509017589
0.3371880302138985
0.35625976609115917
0.34883006253514426
0.3817629736577142
0.3931343587006437
0.4246432680225391
0.4586020264715116
0.4886648799867723
0.5055153482169648
0.5358767455834585
0.5289564629920381
0.5520100258594426
0.5359411307239447
0.5292520129098418
0.5120663701833263
0.511829333994915
0.5047083940961207
0.48704378192926373
0.4799496717413871
0.4671916377603341
0.4764531129244502
0.47276401941223173
0.472767069074695
0.4706740334778671
0.47719855051328264
0.48677241273308197
0.5040458795772085
0.4976786040389709
0.5215762096869011
0.5038405376733648
0.5265807724075702
0.5090790397787731
0.5188645116528974
0.4992203163587227
0.5074087070278788
0.5089770341703277
0.5194053726437765
0.5148875707119298
0.5133983180306891
0.5043276755045816
0.5077685739171605
0.5093925062595114
0.5437558585679481
0.5623764503488996
0.5722913207286147
0.5924470256729933
0.6198146861670202
0.6540106467757226
0.6250012815621255
0.621421572566705
0.5594499582704595
0.4795765517444222
0.44610188607520646
0.4395833297835866
0.4357782942926409
0.4589594815528858
0.44405035283008515
0.44876615267745323
0.44122212024953245
0.47809301752817257
0.4757395337666341
0.45046371680645525
0.4470125505226455
0.5529347768296276
0.8715337990037766
1.0
1.0
1.0
1.0
0.9389324628240505
0.7590129563129275
0.6133646120737908
0.4755884922091248
0.38320746323018173
0.3474935402568905
0.3235369144462386
0.3300136150054756
0.31738909605441507
0.3312388758803649
0.31576993687317645
0.33614786052904533
0.32632203519407044
0.347768536552549
0.33924067921607526
0.35370018748270554
0.34216610473015147
0.3379272970928547
0.3305606503043485
0.3383910295882358
0.32689435109893916
0.33598984946479077
0.3482145668762767
0.36415972366796917
0.3785541838559328
0.4067921275063915
0.44350390109728577
0.4357643410840115
0.47213031641895464
0.49156320394560504
0.5164098289514233
0.5403077205015323
0.5661996340375053
0.5455671639866688
0.5542706424106931
0.534203763174694
0.532407376421953
0.5017140816277903
0.4999687575086814
0.47964051227985277
0.49041543463425397
0.4831723980716577
0.47283091720845194
0.46469349154011486
0.4554991325468058
0.4360647662575361
0.43894944884042575
0.4300281713967996
0.42394181622118
0.42520775177710146
0.41050860951952906
0.4128339442729768
0.4072887807767338
0.429014131109418
0.4205083596366019
0.42955133474712304
0.4283589736539479
0.445718232855168
0.44307570235305355
0.4663151031824816
0.4443700622161776
0.45949964648286185
0.4454706694028744
0.4530695137625149
0.45406306421715203
0.455174883171209
0.4486222824486908
0.4917394598756313
0.48186592952656804
0.48688652761934764
0.515261757172166
0.550361272610536
0.5720817507820899
0.5677466071829956
0.5446586082541364
0.5232108132417268
0.44047911700058984
0.3940160128714373
0.39158416758385567
0.3861985806517329
0.3863770086615886
0.39786759560143503
0.4042055223921113
0.401468196408969
0.41503746915239265
0.4142663609655253
0.41521719564255016
0.4112106937170042
0.6275578089736815
1.0
1.0
1.0
1.0
1.0
0.7872256480226799
0.6192781492165558
0.47904528891943715
0.3762455518271407
0.32713776454734367
0.30230735313148815
0.2737028181741917
0.3260705417353618
0.3525797436824843
0.3723118482999361
0.36800301684225084
0.3884132752806854
0.3920690545265454
0.40212361086369414
0.400296183408474
0.40954905787439255
0.4005004660468364
0.41893353002482236
0.3902553660881873
0.40507491722938227
0.3922308582211038
0.3886723628234092
0.4045572222989636
0.4328978584994886
0.4442566113419157
0.483554025874104
0.4921837632833048
0.5212817054593457
0.544634186255062
0.5648763258557528
0.5930166930184476
0.5951322417558442
0.6008500926173654
0.5837083656938802
0.5803211458957348
0.5685871346834827
0.5603385377080073
0.541738938566236
0.5472804044841489
0.5248155879586125
0.5442827376530096
0.5328181405628636
0.5305283860363622
0.5137212337057753
0.5150868370962889
0.49924647210110135
0.5204050682603933
0.49222171866220876
0.5136468423758543
0.48929451796019163
0.4876614129706775
0.4748363363254374
0.4623484223471033
0.4654875404160129
0.4720509337538104
0.45785826677163904
0.4447015982822176
0.457502792022049
0.46403332003909625
0.471812077968197
0.4701996055398002
0.4634714112311431
0.4516867426336372
0.47837428802627124
0.4659517718934253
0.49535194116929626
0.5061998159041183
0.5096217684410826
0.5277278426040223
0.5783232675780433
0.5866312083340033
0.588858160758925
0.5547643613898979
0.5584193305651663
0.45852649624868597
0.42096584084686617
0.40814373616829913
0.4126349468612537
0.3947185730080118
0.4069560831119232
0.39437063022550944
0.4081503350654998
0.4158256166231221
0.43752248523717513
0.44827352036277784
0.43732703958585717
0.5286603999225548
0.8206643073104909
1.0
1.0
1.0
1.0
1.0
0.8058494036997994
0.6766191533536682
0.5151493013396137
0.4723561324801991
0.41135187924373096
0.41147930904194013
0.38505585325060643
0.41076407058795616
0.400307152328378
0.41311694387746006
0.4080028449323302
0.42418814458904847
0.4174827592132761
0.417373306975693
0.4305296419400727
0.4314433673611654
0.43133760782480657
0.43382628711215554
0.42442883961657324
0.4129256965572251
0.4241506958123814
0.4025268407024554
0.41582858937199285
0.4167169616497299
0.4393667711176278
0.45614608693790293
0.484115103824091
0.5255137660348674
0.5740390881403004
0.584914767397491
0.6173815997727321
0.6199986492703092
0.6232541719284421
0.6126222471655348
0.604720656663898
0.5879755126446045
0.5527932791761742
0.5371958409724307
0.5225500686142611
0.5113946187637313
0.5050682336161816
0.4981802539642472
0.47912728004424066
0.4713265336884012
0.4648368144023385
0.4771125399699329
0.46486731438061896
0.4741279893917295
0.4611396233969889
0.46594839195588333
0.44516004933697717
0.46528184277401374
0.45073457019960506
0.4540469496598397
0.4457851923463737
0.46233071339837145
0.4453853616774944
0.46089151284143287
0.4488258011312274
0.4508696336401587
0.44842619949015505
0.4512263850771788
0.47901590501781594
0.5070876572900082
0.5038211879026363
0.5054635831039578
0.564115473834662
0.564273224383199
0.5919726211808715
0.5573138361855193
0.5666847435520584
0.49497241532758374
0.43339642006580326
0.41801723494372034
0.410630496524867
0.4123979460347321
0.4263909762629031
0.4271739387025941
0.43123885702841047
0.4277344537435613
0.4548310321993398
0.434819352638514
0.44759047715648237
0.5610155854422002
0.8772463167554104
1.0
1.0
1.0
1.0
0.8630693406694558
0.6832725025248327
0.5577824808586986
0.44427295677143075
0.38580318891848586
0.34209441166238547
0.3476376638390569
0.3304415776316617
0.356896768272423
0.3440507701058322
0.3732556354097477
0.35590412892873974
0.36977525997992455
0.3545904701908704
0.3620812149887884
0.3577394046669006
0.3628753472210504
0.3594110054902532
0.36270289245847465
0.34759007015034327
0.3597830746392883
0.35772819990990545
0.37581326456456454
0.37432547827572477
0.3839736572105584
0.40961634889941034
0.41616661706342783
0.4537378425014039
0.469207568853656
0.5074486141058452
0.540546990375731
0.5607199973350323
0.5564658793338966
0.576286949537409
0.5569237110330073
0.5524483384598616
0.5347953073207098
0.5255975134514907
0.5162241396670607
0.5167771855809584
0.5053166832178454
0.5041006822995449
0.5003497760143634
0.5058442574472928
0.49694445123979947
0.49488976803942525
0.4900262324620407
0.4854696649960074
0.4919090383366795
0.4843935796299846
0.4974619933752386
0.48556866207963123
0.4999861567749825
0.48197032474686097
0.49300779375314907
0.497017674067901
0.5020735750419545
0.4968775810619257
0.5081915115572181
0.48865372702864907
0.5017271198862145
0.4873333966848324
0.5006102801220066
0.4859092885577122
0.5195591999745764
0.5491992138600298
0.5693783422110412
0.5709390626435017
0.6085005876528051
0.6203494426291875
0.6294723569782371
0.6110228069779429
0.617268339915716
0.5388350299576193
0.4486763120911516
0.4445673569097668
0.4364924583154813
0.44729991981072237
0.43670077174963595
0.4410201143454399
0.4410194410169167
0.45009647931310826
0.4463491038496823
0.45499706568648135
0.4409993958477795
0.5052141936310041
0.7632111542777699
1.0
1.0
1.0
1.0
1.0
0.7768760865288872
0.612984386986643
0.4583042061591932
0.38628602139115875
0.32130106039725365
0.30746620022151766
0.30466541048622087
0.2997800312802923
0.3131865176403733
0.31292760988697
0.3178969974262071
0.3222669652184046
0.3334781487425548
0.32240558812519887
0.3246109543488596
0.3199196346505165
0.3242711636668866
0.3131971428979316
0.33432709868691834
0.3190362904600071
0.3372367592746604
0.3347788945714495
0.34643757907804495
0.3579353704550664
0.3778717848796195
0.4056843830454081
0.4288311741527956
0.45426549126734983
0.4861546559687858
0.5229932646100707
0.5462015522637315
0.5571080912073321
0.5557541155071432
0.5514519917091537
0.5297459033737162
0.5319950690343906
0.5074400725610272
0.5107660025879464
0.48364231644156536
0.4938414287722498
0.4822628913267387
0.49046524819259557
0.47394212783152706
0.48895497579526837
0.46613871641024424
0.48253450062202585
0.4674582956274782
0.4783899253727949
0.4625848687098209
0.4694069541841171
0.46742404141526983
0.471173306699325
0.4817678737852951
0.47129657916352913
0.48167108680939846
0.47592048900169714
0.4728325330387396
0.47872884446697483
0.4878887167520185
0.4821097736559983
0.493025284264007
0.48686160253272054
0.49982578750054263
0.5080103017918167
0.5658779461801422
0.5493094975053904
0.5749590282638679
0.6012153402137836
0.6227990315662979
0.6348585232040487
0.6277409064786453
0.5722536412060679
0.4939735755443527
0.43337486962433147
0.4499570210518137
0.43461918932685506
0.446943759703532
0.4453643266035339
0.4535570583385756
0.46030552746629505
0.46206015725498917
0.4733048975254645
0.4580767132494019
0.49088298918984297
0.7412427177175436
1.0
1.0
1.0
1.0
1.0
0.7507818757182292
0.5985536263772275
0.4301810519988828
0.37487631408689454
0.331140551713163
0.31938053393131327
0.30609994012612407
0.33749885002034247
0.328735483697161
0.3339710398289193
0.33680227201762486
0.33652705136729627
0.33471088364375995
0.3328650633829583
0.32623257826462243
0.33068598175993424
0.3257205194482724
0.3353480371973761
0.3303543943412864
0.34456931575882355
0.3688942874458007
0.3831822769792536
0.41241066718901387
0.4236595352181207
0.46561133451835063
0.47240785689645903
0.5258850581746761
0.5369384650707593
0.5691654642040411
0.5775121766497628
0.5801879804001123
0.5636975561097542
0.56048614012191
0.5344065204448131
0.5384910131000568
0.5063803831569632
0.5092503367401389
0.5045868724208288
0.5016770480077616
0.4871035645623249
0.49642304923068464
0.4847734045115467
0.47890094048350235
0.48589076146976795
0.4707267604244187
0.48236017553603616
0.46779794775766587
0.47990836967866424
0.4728313959763665
0.47114285424233565
0.4641715847623232
0.47423839254855393
0.4667779500682522
0.47627808734825783
0.45792888295087975
0.46915207497899153
0.4596669579128849
0.4854065598823315
0.4610675781041884
0.4844116692175833
0.5067994718718297
0.5325960051349582
0.5175903330760994
0.5642559592422633
0.5910182874005196
0.6049692581184036
0.5931911369561709
0.5721143030249057
0.5183486268714229
0.43949666549411504
0.41077275263768315
0.4132680397966542
0.41264989678369435
0.41882918384389994
0.42515238382417325
0.4325858830098662
0.4430659753055024
0.45898679405955783
0.4596139640218072
0.4430479267445325
0.5039729683323643
0.7988716178546775
1.0
1.0
1.0
1.0
0.9233070143458221
0.6642292221604454
0.5297994214140063
0.4020410232471406
0.3649324277842615
0.3320486348737147
0.3075387874659858
0.29524327976588777
0.30881310099693166
0.3093384785255927
0.30951214533436283
0.33864881427755356
0.3038265857528552
0.30903539173709216
0.3083223415675548
0.31103853162315553
0.30760671928959127
0.3091577119646325
0.2928036552185963
0.3187903436449007
0.31346992936530765
0.335186199713333
0.3316946398462287
0.3585576207203995
0.3862088392174255
0.4157109110313212
0.4378398369087586
0.4664068840184045
0.49964122245388154
0.5318031833352485
0.5543277936729964
0.548784534536167
0.5622644881813845
0.5480240412044571
0.5392340663989507
0.51697629689037
0.5144227715006608
0.5028828388877215
0.5169294067512572
0.49699455133973264
0.5041965840500187
0.4889770842808551
0.5055075995111886
0.4802468959482266
0.5004495002297078
0.481871876244414
0.49633070844794663
0.48609229353751376
0.5019459228128977
0.48565177258870307
0.4902249326734025
0.4886504788726949
0.5009968852196056
0.4896213659837102
0.495371151329541
0.4888546092598416
0.5091258224959353
0.5074567200762478
0.49656471549451914
0.49513403600884776
0.4991026849604287
0.5139659881392096
0.5390536493399681
0.573252895012816
0.5603037016400787
0.60778144171652
0.6298232929633129
0.6614457646454127
0.6307349728394845
0.619908402467473
0.5473443210238538
0.46786618023714344
0.4444306736396818
0.4539750822162033
0.4605438442293369
0.47420320237410857
0.4620975998119249
0.4851943395968399
0.4959165645524079
0.4952394173783124
0.4975312699495541
0.5081162409187142
0.7693764490576902
1.0
1.0
1.0
1.0
1.0
0.7932751161049192
0.6681131771259597
0.5097021577028091
0.4155261107767174
0.3797751612085518
0.34982353198774635
0.34791007783245975
0.35211657586261985
0.363581721955828
0.364203876207933
0.3778739437198116
0.36217587265472545
0.3636257020531042
0.386787557935601
0.3847910163776806
0.3809736185148046
0.37599085863763
0.3829160710022622
0.35734100180166467
0.38439847653168113
0.38022774927064296
0.40102273513737374
0.40507453841555574
0.43244448154685494
0.46831150178001674
0.5110511727503606
0.518971441845583
0.5580319298466128
0.5775092479405555
0.6112811680598749
0.6074971501711489
0.6165667329214666
0.5986215052554069
0.5844837456917035
0.5636462357963926
0.547699395189816
0.5328445998442862
0.5229439548220947
0.5148241936342978
0.5197760961014894
0.5225008980033453
0.5256475971063825
0.5199805055019693
0.5219719110469749
0.5258877743742922
0.5266045561336831
0.5341638239198157
0.5178292113094682
0.5331081191264896
0.5225446974609976
0.5444642703518197
0.5274287998395927
0.5425109833288508
0.5395837805289643
0.5448071862075767
0.521524602659104
0.5310862978456072
0.529484027485074
0.5297643345645837
0.525537667843756
0.5315519442939312
0.5368093308516475
0.590542862858622
0.5918205174264377
0.6015394288503497
0.631969448498715
0.6558100116234561
0.6813202035354007
0.6648192577722082
0.6508453644240804
0.5500911821095145
0.4870994515183692
0.46242154407370634
0.46326771283847135
0.4698977992235946
0.47246026736597785
0.4684467808199034
0.48597654378400623
0.47204126966593857
0.49908560171762983
0.4794293450472537
0.5010056350503906
0.6204017215774422
0.9937474423244682
1.0
1.0
1.0
1.0
0.9605936813697579
0.7399006484307854
0.5699758504651866
0.4455979966306146
0.38443342297658367
0.3513547441287078
0.3555648252318772
0.34651295249270275
0.3565228930513037
0.3515979654232074
0.3735157652650004
0.36868758870475377
0.3697909779757897
0.3528314604647195
0.3758364186365604
0.3585878402188768
0.3671857726076791
0.3577638002595191
0.3769582857048997
0.35268578341739387
0.3719714896560551
0.3770765415744363
0.3789106651147958
0.3838671238558693
0.40808452700455095
0.4233862347344478
0.46304032120471017
0.4807212973522857
0.5164393762684033
0.5453493053754979
0.5781169722120569
0.6033040753606888
0.6117708899614509
0.6318291199814685
0.6056125672364174
0.6082280983306056
0.5862280763355449
0.5757533970392774
0.5662499193003684
0.5403791122802538
0.5239600788280637
0.5058826994070118
0.5022923233382949
0.5235859639778454
0.5426494343620357
0.5672069134312093
0.5421949878008419
0.5507428123178515
0.560052859800754
0.5628663462435419
0.5745880257953353
0.5872059280831906
0.5891844551002486
0.6059275363537084
0.6027544189160403
0.5999011750657052
0.5948867106307862
0.5806417692456366
0.5863770111146369
0.5744337681691215
0.5878265562083425
0.5749680912991536
0.5957366918887194
0.5921535196362686
0.6057891516528716
0.6369111139648624
0.694505087613275
0.6457428639444047
0.6870432015664285
0.6887353105980459
0.7256384111028148
0.7168410056610274
0.709087517149466
0.6377972493674732
0.5703511053536708
0.5307246345785576
0.5418817012073542
0.5414530823808336
0.5292625445223503
0.5355050692037642
0.5263474202909817
0.5418416089584178
0.5417807380043467
0.552147706618862
0.5200769911642424
0.5431296399420662
0.7519098051217855
1.0
1.0
1.0
1.0
1.0
0.9059474758690147
0.7474720045958031
0.5610315354741807
0.46673378477875477
0.401418118305756
0.3851739164528001
0.36397663740165453
0.37770851203082223
0.36206971740721244
0.3756944516985383
0.3716118713501303
0.38812521229205915
0.36822830711794885
0.38757700327330064
0.3885784954819413
0.3842104305726327
0.400803242936588
0.39557946617338074
0.39704441665026624
0.3946718104914748
0.41216198634538725
0.4089441296531743
0.42378569324998205
0.4227949293390565
0.4501145380618509
0.46476332316930175
0.5026937776414239
0.5222084079835755
0.5591190880481575
0.5714213835002578
0.6137335907708019
0.6252519776294375
0.6367664446847722
0.6304141215403415
0.6213253818426444
0.604727052644794
0.5900013598002856
0.5763556727218433
0.5631416347317026
0.5462758187272481
0.5323798336607795
0.5419582787090339
0.5169563020110618
0.5316133964982879
0.5194418407735314
0.524245472927364
0.519539509749912
0.5240391173353434
0.5106513450277508
0.5203407008043908
0.5142611860853907
0.5346482494378988
0.5198268263713646
0.5195125527218383
0.5176833367230452
0.5218259663389692
0.51117350695572
0.5213282860052291
0.5056387039524151
0.5102505599821295
0.5154651488435918
0.5070429271051129
0.5148310107074168
0.5188348368467122
0.5296383387310348
0.5165745512605964
0.5358356968356194
0.5808103009501474
0.6177723773614758
0.5903978859235803
0.6403520788480013
0.64329975385457
0.6815776729709064
0.6730034231147579
0.6574962437114822
0.6306095960544827
0.5575482368252783
0.472939898707582
0.4717606469462793
0.45185296876265213
0.4620734981848387
0.46802473192956306
0.4652519424745565
0.4793516135403831
0.47945921566934524
0.483686191009037
0.48097317574976045
0.4700756196895208
0.47309691037734847
0.6786935889708012
1.0
1.0
1.0
1.0
1.0
0.9133942321526345
0.7384086778181647
0.5770119822170341
0.43140129448855247
0.373428832704115
0.3355473444251159
0.3371516092686642
0.3331397119873526
0.3544742439462255
0.3457335107567713
0.3624780195928616
0.3526976573015501
0.36727339224561284
0.35644959360159145
0.370952677407804
0.3645454243466257
0.3511889086486616
0.3592039885699082
0.34333733810879624
0.34220731628007545
0.3453387665429618
0.34485023927959924
0.3515410363625204
0.37324901022709744
0.39088697996581984
0.4229920229369733
0.41770772665471806
0.4815618103763238
0.4987790469947503
0.5393489193962846
0.5702117047149573
0.5913522129473555
0.593011174912428
0.6071304279389482
0.5783281449700544
0.5702685298538801
0.5529042952435093
0.5425338134138826
0.5335697962722283
0.5237877881994765
0.5232295417452411
0.5132617098752625
0.5182431203965059
0.5221020617680507
0.5134248939436513
0.5190627003441367
0.514699149422365
0.4988996519142284
0.5062404841432437
0.48699436761820775
0.5089900709807551
0.48430045073825234
0.4997218301906236
0.48139355470470074
0.48169544688136784
0.47631293669511904
0.4889827918851064
0.4713284631743426
0.49503476085930487
0.48023370069376625
0.4802858897948661
0.47007171000683867
0.4806858082232443
0.47637592412156976
0.4806932775872534
0.47729535952421626
0.5230912300773077
0.553009102635368
0.5374429756697536
0.5652507789741545
0.5889431550516216
0.6202997469987043
0.6046502624555667
0.5892222891830229
0.5724669433235519
0.4748218302919941
0.41188059980218766
0.411092239256873
0.4066182200409377
0.4120839494991981
0.40783366611555216
0.41161879876081764
0.4046936217838947
0.42518994437013136
0.4152559570626634
0.4190514607668699
0.3963486256426879
0.42205356734057686
0.6377406018732386
1.0
1.0
1.0
1.0
1.0
0.7779860788448755
0.6358842125531096
0.47636980670550483
0.3650963196078747
0.30917491781355694
0.27857875713349783
0.2734960624315922
0.2634733342911097
0.266527659516845
0.26614095088707657
0.2744594816376114
0.2701253588284388
0.28768460548889835
0.27907704065073435
0.3019764864580352
0.28779985455087576
0.2927543807989238
0.2993224311764845
0.29230646691025414
0.2832322888104688
0.2912146158818799
0.29718117406541933
0.29302451004151037
0.3073486748836666
0.3332175154335181
0.3587431864845943
0.3883295832021858
0.4079398246511571
0.42785539850074167
0.47756847944111647
0.4913980952348789
0.5214397637446876
0.5104076051675587
0.5115061613455134
0.49613545060067504
0.5015291091330208
0.47526229490211047
0.47520208290461535
0.44616952532443654
0.46049519653373105
0.44711125992667444
0.4671001891399465
0.44471782596569753
0.4526593552299625
0.4461666358770464
0.4526726484580756
0.45560467313601805
0.45008800923526576
0.46237760835156727
0.45135372723581985
0.4604708181398237
0.45979085420571336
0.46761710236465887
0.47244942673926005
0.4791904227226219
0.47026308527773686
0.481171581395207
0.4765823402518792
0.48718170967814894
0.4803489869858536
0.49473732136628923
0.4758361867153174
0.4967943891562975
0.5023030154207346
0.5263696575704079
0.5582720406794429
0.5626395170703384
0.593287254703131
0.6313661384861529
0.6507567751333446
0.6576529296877797
0.628629946213693
0.6010117046654191
0.49577079354462317
0.4538012876540087
0.4522436739668326
0.4498472701570552
0.4639195885751463
0.4458494951931159
0.464422888119813
0.4610644958099284
0.47214128080820156
0.4666057765053343
0.4558151869190664
0.4762013555925259
0.7660009571776147
1.0
1.0
1.0
1.0
1.0
0.8325576983230842
0.6457832485709104
0.4816905202977077
0.38305517675331957
0.32188596460521113
0.3109165442525085
0.28963158325889937
0.30431287260751205
0.3068179069490774
0.31836838452096716
0.32394376939287595
0.3275339106808878
0.3204146030561244
0.33503384709741524
0.3260583088857188
0.3379698122594671
0.3122640800364479
0.32997159604938886
0.31445770749937924
0.33218845282304005
0.3251329814067037
0.3406874375173673
0.34133231377193995
0.37424699162982716
0.37397554936956495
0.4126603571958184
0.43316176635066644
0.482132065915028
0.5017515533297814
0.5414832532745719
0.5549615427856166
0.5705910714514599
0.5717521576323297
0.5680020108081266
0.555909433512404
0.529767893455506
0.5175237954632983
0.5012725453697084
0.49431695826683875
0.48179098254259867
0.4894207983631273
0.48460115749972
0.4864808760281624
0.46755343406742894
0.4798854025608617
0.4592673942187626
0.47347543464270847
0.4601046410569314
0.461990034938658
0.4690138468217441
0.4726401418904135
0.4690016899171597
0.4799258117031419
0.48123198190625827
0.48413232209040774
0.4834578561751914
0.49794173260890773
0.4889490315369055
0.49037726485941563
0.49482330756859694
0.49420783809867136
0.5036430914067623
0.49195108827888656
0.5337974812111208
0.560700788895609
0.5743156947724003
0.6016611500293295
0.650144799094541
0.6512436357884266
0.6585825957199543
0.6270621568896032
0.5762507129730458
0.4629385039206029
0.46282787460772773
0.4476057070436349
0.4642964755091981
0.4524897978388151
0.4663922430032582
0.460365898064561
0.4908360154202847
0.4787766802719039
0.4711208992083543
0.47646437807929753
0.7580158919152925
1.0
1.0
1.0
1.0
1.0
0.7985552853091458
0.6380927690874582
0.4354692565570678
0.37658745469460303
0.3183103821271843
0.3173415350007288
0.3090865349147126
0.33871273685667713
0.33064657595730285
0.3460426873696989
0.3371118958842002
0.3437494842610838
0.3372255683005159
0.35548143576485114
0.3445415194272714
0.35560961958268567
0.3499932956498736
0.36128808687832187
0.3535558646572346
0.3622228452399958
0.3763118247195678
0.385045032846572
0.41088603254228007
0.4183298497420959
0.45617970503833893
0.46990397184542465
0.5254635508531159
0.5338668990654645
0.5843943430568509
0.5837761743035479
0.598765796034669
0.5867069881567512
0.5773229964803998
0.553852564251337
0.5491520437265467
0.5253060158244213
0.5287974532213104
0.5096243800220044
0.5223186331296759
0.5145834420996251
0.5128168058945063
0.5000991919265418
0.4960555156501398
0.5021154516941232
0.49829118351195945
0.5009909471332146
0.49397833394810897
0.51070947163594
0.4884648821361296
0.4967790243640935
0.48745389690815244
0.501532421882882
0.48706121954106935
0.49567766982753253
0.49236741975049964
0.49987994148988923
0.4917373261547424
0.5049764163361645
0.4992938262682179
0.5065609039279316
0.5090043244426818
0.5490246433288316
0.572863750528883
0.5822864103446641
0.6112984594161418
0.6354398355355795
0.6515680968291004
0.648485432916864
0.6360450038461293
0.559958436445556
0.47973115841015124
0.4526970723229605
0.4545305403757801
0.45085839198684063
0.4610265580418688
0.4627362339600383
0.4711230835149033
0.46867567993676795
0.4987338173285787
0.4722873871287083
0.46342173582428436
0.5482070279141692
0.8780616188653261
1.0
1.0
1.0
1.0
0.932778285390409
0.7778228278248724
0.5879989264419271
0.443415487462884
0.359741864737507
0.3356787812524694
0.31845966598973136
0.31925215255189204
0.32894049569828926
0.322485825353018
0.3427505117340194
0.330401075542448
0.3487035926649607
0.33967436247990346
0.353957309801279
0.3342841197878208
0.34546177885357887
0.32906554323255544
0.33930678749885634
0.3309707099823937
0.3418823071339073
0.3416285785934854
0.3644168513624788
0.37486080016600426
0.41979811758511587
0.42173285392659804
0.45796546879800887
0.4760007172126633
0.5091768055800217
0.5375571506125898
0.5520935792810623
0.5596092244104651
0.5538725490112262
0.557600386107417
0.5349364984960283
0.5210285271261584
0.5136207050940872
0.4989205542804422
0.4849249926840951
0.4879733129576029
0.45479083310651847
0.47793470247039577
0.4558016033900474
0.4618288467003042
0.45184862818836474
0.45493038105428185
0.4433003624085899
0.45000894315822676
0.43829352717309006
0.4500395414706867
0.4435846708747322
0.462650781876072
0.45422365026272765
0.4552194770847935
0.4515043426180575
0.4496158218955886
0.4567280989757627
0.4441633839524351
0.45507099433632126
0.4426765641892362
0.4608422342976694
0.4572448336324625
0.46046108398630753
0.4862657956602745
0.5257628456098907
0.5095275463434408
0.5687945322670483
0.5778631997610394
0.6252919914270788
0.5870727135717555
0.5809368456220148
0.5322530143432715
0.4466622582586379
0.4067683130223395
0.4080038410951805
0.4045732502176228
0.42416275989913643
0.4195248732358072
0.42791912286967443
0.43462925924877815
0.4398801683457826
0.4505182251964466
0.4364640612172083
0.4561951864157903
0.6755572794823067
1.0
1.0
1.0
1.0
1.0
0.8071728492837302
0.64983381134073
0.47472061353557543
0.40540099271803126
0.3308357883992884
0.3338163477152832
0.3048226336479258
0.3252639932597424
0.32509658169723316
0.33790988669199673
0.3254184706120694
0.34810826157284325
0.3388902079198278
0.3450033724547442
0.34595238726128325
0.3498884949482413
0.3437316992898706
0.34537925288321447
0.34429474713035435
0.3469105751495877
0.34846181072851723
0.34204611185617007
0.38083600501279913
0.3768454299998832
0.403850293132869
0.4203660814369572
0.4578485637667443
0.48267188895071145
0.5226308479344761
0.5396289028765922
0.5763997366480658
0.5751067771307767
0.5888475466461951
0.5655389808947529
0.5620520518252197
0.53760817067665
0.5309556313855175
0.5324492873646653
0.5279650013231757
0.5148395692822942
0.5183270349503174
0.5106239359609719
0.5131175848311578
0.5103096209517941
0.5060534707521674
0.5088273123961752
0.49874807081753997
0.5067565825575197
0.5031314990331479
0.5170152997675393
0.49512780894884906
0.5099628536936052
0.4929174050467616
0.512374062409928
0.49644151559957483
0.5084656058650132
0.49755792515513086
0.5065166359876818
0.49891181866659207
0.5098482424647683
0.5001810180021607
0.5255016806023896
0.5359199432997601
0.5923312361808264
0.5614807446642635
0.6091048323919367
0.6355418615121965
0.6570288255579833
0.6552924480701542
0.6299135828718178
0.5848296940589102
0.4770962131288582
0.45770848047868606
0.4586468190774098
0.4617027884445684
0.4588625239958183
0.47357505165621394
0.4757742792208656
0.4805940714108446
0.4773088333955446
0.49780565391073583
0.4649468178225165
0.5369308081172653
0.815302147214849
1.0
1.0
1.0
1.0
1.0
0.8899825370965185
0.7423389965765164
0.5612483159318583
0.4297957832178714
0.36103740359069
0.3206435195068995
0.3179725296245105
0.3126123731096959
0.3266656600670713
0.32282338110408415
0.34186299587382984
0.3337084002806762
0.3382957743854831
0.34050903981729663
0.3506239753912993
0.3311353844132248
0.34682528235446003
0.3365536755744537
0.35411112977383924
0.3287066475012961
0.347547878507423
0.3493410850980527
0.3653629250864943
0.37511341570245244
0.3925799398198062
0.415045492940853
0.44227002497617757
0.46041398984436344
0.5035752454756861
0.5429301932836614
0.5571540368555524
0.5916751668772766
0.6038072624065765
0.6170106413283183
0.584489785406409
0.5806172031484321
0.5560294819155993
0.5555856019148616
0.53575378754436
0.5366166822976625
0.5197810689503324
0.5262689728285265
0.5092176875279018
0.5127489507073976
0.4939420495533285
0.4992319141246851
0.48624746503001626
0.4844108242054442
0.48347939809970775
0.4827956233762234
0.495612540113922
0.48989665666999727
0.4982129679081296
0.49267023462534915
0.4955155369002874
0.49932215626623433
0.49553419332974047
0.4980808068060985
0.5031716167855861
0.4962072151307142
0.5024653288059293
0.4917624623757758
0.517948205893862
0.49892592982078654
0.5287713145971865
0.5661317080419876
