MLII
0.5
0.36510184810468094
0.4325509240523405
0.5812337220873082
0.47406481516913923
0.6507759141805627
0.6139067111689147
0.7959944951017842
0.7522735938351072
0.917197927905033
0.9676261525293267
1.0
0.9786509444281328
0.8790904101272833
0.8105192226583778
0.8858814105029047
0.9676021699262997
0.8971930760021559
0.8539876387562121
0.8523152183453411
0.856296083588355
0.7714172110838259
0.7079142893999355
0.6784081489443871
0.6542986663592131
0.5956064865302441
0.5646088943352382
0.5212994073843222
0.5
0.47263436878470994
0.4737637842423464
0.45284774395556787
0.44175729720148577
0.4271082223042645
0.42958710424620605
0.3962681596497905
0.41649054525578466
0.40365617704642104
0.40915522832486556
0.4244723835480625
0.4256821921367703
0.431241703261386
0.4324648472792668
0.43705505242574033
0.4404929203576556
0.4456030490827471
0.4468484989119082
0.46575782353601347
0.47793437736849587
0.48985369732049444
0.4852182290120723
0.4964003601813892
0.47353640567387706
0.4933594881593632
0.48103509030137015
0.5004416903310066
0.4727501010095364
0.484820890150956
0.4699539417378225
0.48017387593127997
0.4754453805108624
0.4894236417154857
0.45477047260688774
0.4656529642488715
0.4556996290469543
0.4534536621115045
0.4499459517088555
0.44296465093626225
0.4457831003217157
0.45959645523864856
0.45298490265167074
0.4254835093346558
0.4434914768428008
0.42509569920828055
0.4415988995323163
0.4341759111281059
0.4369101040405486
0.4302340505800034
0.449582796896273
0.4258627858143176
0.43353620490706135
0.4177836670403014
0.44397786415153695
0.4149708547558097
0.43011690814131603
0.41969698002896577
0.4549739870222454
0.4450591457991001
0.4363195684647181
0.41689736152473245
0.4329812137247039
0.4496554213405595
0.4520000333799429
0.42010986013412993
0.4421034871412406
0.46202528895947
0.4443566200254071
0.4753308113959059
0.46450955665671
0.45683257415704376
0.43226157009711336
0.47692747991228
0.47225088898654305
0.5121411897283407
0.4871957549488012
0.533637877247073
0.572790290116603
0.7518791371822171
0.7291836129502842
0.6612618910124155
0.6186344969728733
0.5834346538822125
0.5353115976345881
0.48647949283334935
0.4325509240523405
0.4571850026776067
0.4836594481324849
0.4744356177666565
0.45446121746651913
0.364118749048957
0.9370325190893805
1.0
1.0
1.0
0.4325509240523405
0.2467558687685268
0.4149544440904281
0.39424447838674953
0.43742924352554324
0.3825679569925066
0.4325509240523405
0.39347874967533214
0.42066026069973866
0.40886376635701255
0.4446187565374008
0.40168868561628523
0.43534714386573725
0.4406223078552026
0.46044741462531774
0.46549017402654835
0.4883202885803849
0.5110211714483092
0.5273283763324385
0.5571974573743905
0.5685729776945121
0.6159289697463798
0.6917214645289577
0.6729217919651015
0.7380729560983573
0.7668614556276372
0.8162675026202985
0.9316898182706999
0.9759865903210233
1.0
1.0
1.0
1.0
1.0
1.0
1.0
1.0
1.0
0.9082206241763728
0.8427753500169073
0.7677483739698412
0.7341818245126122
0.6802965433729597
0.6464175274061892
0.6318660935888247
0.5952995739413905
0.5729000855144455
0.5478762543273408
0.548500144163543
0.5151214293297066
0.5307850629802581
0.5160950390126972
0.5404094273872495
0.5515763171290252
0.512983987963548
0.512771594660083
0.542156755668832
0.49844604072285315
0.5684678193753762
0.5639505142799598
0.5974981577206084
0.5835962880689619
0.6078759436269008
0.5851988670517181
0.5821542450561871
0.5669677708805486
0.595484963963578
0.5680462540665779
0.5369130800280665
0.5430442223758148
0.5577364582380088
0.5477016315474177
0.525052967864456
0.5234442180522014
0.5018884201910292
0.49935317971140936
0.5015312964781807
0.5303605913193516
0.47661451252746795
0.5139671233117504
0.4674248909431024
0.493042582634393
0.46868084542837557
0.47673813476667715
0.4522871806752519
0.4615131325971972
0.46784087625282506
0.469632316842992
0.47104201205578483
0.46895151166981786
0.4674246086371424
0.4567769807611578
0.47531570821860863
0.46092577877574287
0.47278725850273895
0.4694048872565772
0.5078641242286591
0.4548616678275549
0.4555222997204341
0.4487356347854533
0.48800408839750264
0.490565534725635
0.502498391388108
0.46170830737785434
0.49278989459861033
0.45504493038508087
0.5004228061169744
0.4718495022882355
0.5048369705754838
0.4794911458195948
0.5286860938669363
0.5759242369535099
0.6620356519411211
0.7593037382799576
0.7571996895468704
0.633165109174797
0.6553976171108624
0.5959753661441602
0.5396416124061607
0.478647743682139
0.4919552532273291
0.4800911163577137
0.47722720592951823
0.482038743354289
0.37641561198313267
0.43714276787017176
1.0
1.0
1.0
1.0
0.23651864667759134
0.41268156089850166
0.4088824294727124
0.46912466803982655
0.3784706021439355
0.3953021728911677
0.37848398303689246
0.396478557939827
0.3849070274363071
0.43013972525598965
0.4147796038685779
0.4324403372610188
0.4453178567231916
0.4427687602784034
0.4824246377724034
0.4861648200961577
0.5227505994815294
0.5091538937127316
0.5300521271419304
0.5725355168395534
0.6166098150493575
0.6270153783004816
0.6924189269509423
0.7349242780108486
0.8198999805248469
0.8457163748957097
0.9692566592721306
1.0
1.0
1.0
1.0
1.0
1.0
1.0
1.0
0.9708925688160914
0.8904752842620566
0.8085928408038919
0.7218260638297863
0.6898302064187438
0.6614755406510447
0.6260396560177167
0.5459740894987288
0.5460008448681127
0.49594010596930643
0.5103081746353368
0.48122112714009935
0.48773978301689735
0.46668377040611075
0.4656254871506883
0.43892969433991824
0.4363661988106096
0.4472363039375251
0.4359323470577102
0.4419079000166103
0.45385613956539006
0.45170776224433584
0.49212225649275254
0.48834302855156936
0.4798252361694725
0.4844881447475079
0.4983369212494228
0.4816165047372836
0.48503002139753126
0.4771040402221649
0.48921954507678106
0.4886340172562608
0.4607617521940843
0.4857868200910854
0.47653138748418467
0.4694834044338255
0.4679990296877959
0.4983051551282885
0.47350634862415913
0.4925784084934576
0.4363507187504282
0.49290748845157334
0.4439965483129031
0.46541676068379356
0.44536583816876646
0.49434275471748174
0.4347894505445793
0.4638399418475669
0.4583614171680249
0.46106494651248014
0.4704600517143588
0.47759224680183765
0.45346853552221517
0.4680563848254643
0.47465378558820753
0.4748498174548669
0.4372396763938261
0.4491732266766566
0.4717776242588605
0.4948009345150937
0.47902588868660684
0.49028201634602475
0.4474938320002252
0.45660837539971
0.4644938311591679
0.4731652116614654
0.4965943912254203
0.45659694345976237
0.49638717016665446
0.4763874769628159
0.5022697247186958
0.5414973650522141
0.624996080290103
0.6609427326432347
0.7800426214709743
0.7899954648871288
0.692857694298609
0.6427344381386311
0.5985883753180286
0.5509478937800686
0.49067701237661154
0.5117894302406325
0.5236351405281842
0.4713483421956389
0.4362636447069253
0.3568978998179435
0.7833136423227598
1.0
1.0
1.0
0.6963019086773472
0.20501904197427287
0.4595911548905378
0.41250314646801967
0.4329289427989157
0.361012381339261
0.4281650561557623
0.38445859595554843
0.3821966727675547
0.39419048496752723
0.40224775616703273
0.40407553874773444
0.4360017764906662
0.45902416170823246
0.4381821927819517
0.46893758083818027
0.5069153843110985
0.5005258457412565
0.5433458107728713
0.5441841835000553
0.617438622816489
0.6345646247449472
0.6835030988155306
0.7461419346664584
0.804358352056877
0.8575283613961879
0.9630202324271903
1.0
1.0
1.0
1.0
1.0
1.0
1.0
1.0
1.0
0.926279009285912
0.8674664060612756
0.7792253311503
0.6921155165607198
0.6866263149251141
0.6178565085036374
0.6065930044483391
0.5433043151895214
0.5297620691305138
0.5051424677013734
0.5222943694555808
0.4567136109525463
0.4697068684326636
0.4787299196530353
0.45109667390892066
0.4597156427935971
0.4570399197807533
0.5045287668118185
0.4815602631455773
0.4875567848648544
0.49109609225079714
0.5008411509296606
0.4905353532415718
0.5476645350062039
0.5082050764494261
0.5306138878421452
0.5209415197784781
0.5462355779300508
0.5268214116192194
0.5404918539544163
0.5408120371251319
0.5219726405561428
0.4845738868606445
0.4848886832802387
0.48618660680802445
0.48573945850063255
0.4692335172364871
0.48489858199706914
0.49469219876485837
0.4790373113920718
0.47408333655618184
0.4576327924457508
0.48105408814462997
0.4411692570944018
0.4693769899703658
0.42921992685296556
0.459638958569698
0.45175613649075297
0.47958432547455043
0.46068227947486157
0.47468695826261553
0.45277248717143975
0.474016151127877
0.43078584546047516
0.4826436255466017
0.47687452767304556
0.45959249434975263
0.44964940444255036
0.4785386515888682
0.46148768004246443
0.4646748342751996
0.4694160947028726
0.47035568031360986
0.4900966575254202
0.48167299154456555
0.5047321891423241
0.47418336060600186
0.4616595700346142
0.46393063671449697
0.5256727941119124
0.48775489124120036
0.5624022169815579
0.6242078880933802
0.8107420503089596
0.8298707708760183
0.7276411068558563
0.680274328218274
0.611460962960902
0.527478312462865
0.4777995058022995
0.455258744400633
0.4735668290469338
0.44246080573778324
0.46969317242098246
0.38501160714833393
0.3214691934469383
1.0
1.0
1.0
1.0
0.2989919674945297
0.23242691188399997
0.4136127752914228
0.3601881680516027
0.38558650382809195
0.3539011902366308
0.3659469734007358
0.33224349700873834
0.35741299168317286
0.32339585396861886
0.36402692418989974
0.3735691581489283
0.4033963001133193
0.3872475106477834
0.39868609647615827
0.4325509240523405
0.47926235839814424
0.44165250500873626
0.4754013196864757
0.513238905905889
0.5369365901820802
0.5934602468254627
0.6179859624641295
0.6675746162170928
0.6955932979760685
0.7478263551344023
0.8289057595407913
0.945960340779553
1.0
1.0
1.0
1.0
1.0
1.0
1.0
1.0
1.0
1.0
0.9183912557115231
0.8629534439392291
0.7755402470303752
0.7304880051707869
0.6621497589117576
0.6049664806218267
0.5688513690707786
0.5425399365962257
0.5067968053046429
0.4637006651004548
0.44264324198443916
0.43144674546311956
0.4601311894975054
0.40070599951166813
0.41532700313156334
0.41970835415762614
0.4355294274337413
0.4122855796983652
0.4347517058539626
0.419675343734618
0.4384316689575519
0.4373447146166873
0.4512361524317937
0.46738567687407706
0.4857653564704488
0.4832736815906734
0.4941227114748644
0.4589167908223821
0.4938330262628818
0.4719536913969148
0.5057742645688448
0.4933107851436912
0.48308669642775726
0.4842326884889986
0.47127474345829157
0.4721323854254541
0.44079742008862527
0.4663410996351637
0.44549581370933405
0.4468996703432576
0.4243186976900655
0.44989824502713505
0.4144635146241953
0.4381446894537232
0.40804020476142444
0.45142557497626107
0.4167414736297421
0.4448221559528191
0.40613547132657946
0.4308674512504478
0.4034834192509556
0.4018801341291476
0.41381578048831374
0.42887783191642237
0.41476481332070214
0.4120252010141652
0.40735775047591327
0.39354272089683323
0.39942972736224236
0.42337532322404153
0.3864007448257863
0.3851781511166683
0.42122413134288816
0.405369994556415
0.4033885416529589
0.40284621725204117
0.41325509695927637
0.4107028424830267
0.4006116013718632
0.4027710772988985
0.4473123160014631
0.4195565848571339
0.433255153294421
0.4133123452593163
0.45932975701452533
0.49176558397060777
0.5684075200916541
0.7134854077604664
0.6943440435962749
0.6096830243408091
0.5771430372033877
0.549877328859517
0.4840331617698418
0.40641153304129285
0.352993366486985
0.4082480321743839
0.3679017934541404
0.4387348183265831
0.3465678358831221
0.29221980846985496
0.6465484722111069
1.0
1.0
1.0
0.7982937151424346
0.03331582832719793
0.3245519840127514
0.27160955614412646
0.31990506406133357
0.3003709066494128
0.3105677606017737
0.3038550308587632
0.3011785429725056
0.2909334114833527
0.31701248971489154
0.3207722773728316
0.34462366466056726
0.33707957959516016
0.3282722618675621
0.34877714659912573
0.3961973065984843
0.36100414719648677
0.40838553473409067
0.38514391226490663
0.46540634535449665
0.4688946168830408
0.5210561287515754
0.5132723393565047
0.6344984983181406
0.6368892240073729
0.6745226117287088
0.7282639551747567
0.8538022778462251
0.9131178505253338
1.0
1.0
1.0
1.0
1.0
1.0
1.0
1.0
0.9643019926644343
0.8923347295258213
0.8114927377452906
0.7671840667755887
0.6849265951266585
0.6577170254408254
0.6124570576933884
0.6064215753398672
0.5574980785874836
0.5391245481376228
0.481778064778484
0.4982536179368794
0.4678320315622754
0.4537021146869111
0.4491211068336696
0.45522623628731207
0.4456045086777163
0.47976727557569243
0.46353525918281974
0.45218749101354244
0.4595937123564897
0.4839210936794792
0.5203365935612909
0.532218476106457
0.5246297724044198
0.5197003334723135
0.5436564469936602
0.5321951304485009
0.5150133738864865
0.5337939405275737
0.534915560225224
0.5207079687995011
0.5343697137894705
0.5177103894741302
0.5222497755038029
0.49225612753924
0.48274158226020436
0.4657892002677787
0.48299174836514397
0.45308218271285056
0.47451702842499016
0.44898126311275666
0.4824206359150695
0.42569344466095504
0.4535569605938405
0.4502964839086604
0.48511130070103226
0.4390954767574965
0.4294226675416105
0.4370720405620336
0.4444203781711268
0.4325509240523405
0.4065163986107305
0.42704098251936956
0.4171331003466799
0.4575658548972035
0.40904832824132936
0.4469748313814442
0.43661926638665693
0.45154827953302534
0.44015554735860374
0.4590155692043286
0.4161255842470785
0.43422346535203404
0.39617410957621696
0.43079073091350406
0.4167321320633787
0.4427329722748555
0.45337595382905427
0.47968534339413527
0.48679411600062583
0.5576549113454174
0.6487422957907821
0.7305530634292241
0.6606800176604553
0.6096051224958826
0.5816585497832356
0.535768736061597
0.4800408230790514
0.4454365905666947
0.4295922735391967
0.4164326626890208
0.4401489826926147
0.4288112756889573
0.3974142601140419
0.33201824948127934
0.937057466645373
1.0
1.0
1.0
0.7388077057240071
0.10010324748516464
0.415227715551175
0.34617440926280707
0.4040792761190367
0.33181022615582584
0.36993303463094473
0.347303881541983
0.37396041808437996
0.3481545956974436
0.38972070400819064
0.38441875203114445
0.41015062687531956
0.39148038665018225
0.40372302438934426
0.4168480138602524
0.43678210790379807
0.44053656564366656
0.45860234431450897
0.5016764904507489
0.5110151013013218
0.5494924582819538
0.5581084972219922
0.6286718229924703
0.6611253618117319
0.7159007450705506
0.7472370085486485
0.8358607066841506
0.8903399857857341
0.9881527862285833
1.0
1.0
1.0
1.0
1.0
1.0
1.0
1.0
1.0
0.9260641819155477
0.8686637662771972
0.7656798247922129
0.7286766634402841
0.6451392173616824
0.6495591679854688
0.5837929787894216
0.5754204388461746
0.5117241099101751
0.5203048936058551
0.47547677068001093
0.46706178129976406
0.42768209765184056
0.454469858701892
0.43773529870926453
0.4513191804375582
0.4562264350091059
0.44155522497685984
0.4477200820486815
0.47336925202873836
0.46878987187455134
0.45867840830998385
0.457502322189546
0.4542686144264394
0.46445698180080075
0.4925393705332386
0.4893954041547987
0.46909364778775037
0.49910576442171906
0.49803786444866677
0.5399408510198914
0.4824194956632584
0.5252300643991078
0.4910396629897454
0.51801362652047
0.49496869978632185
0.47471089668470634
0.4627431027676804
0.4866407189125108
0.4768277880665289
0.48984831790820194
0.46963356743649703
0.48725610047173895
0.47310110296561997
0.4642296449010588
0.48209937063675784
0.4846402388435451
0.5261393008038837
0.45895642563133937
0.516331451397959
0.5383175314199335
0.537378476169324
0.5770315682832773
0.6172819801979219
0.538191960986047
0.5409514997883846
0.5657497716002375
0.6555448090040406
0.6184655751284838
0.6229298920104905
0.6570098155578756
0.6781205449476552
0.639714056553834
0.6782948361821353
0.6647542237278151
0.6781349900750994
0.6460926757199964
0.6618279569260321
0.6651780583427873
0.6977986210288039
0.7489795145652564
0.764528298919486
0.7966189472328438
0.9109902907093368
0.948892812017433
0.9288010869393982
0.9045650840361498
0.8268319830728077
0.7629691443722162
0.6829971909797544
0.7343098015374201
0.6200621950071086
0.5758946492145296
0.6259816227583558
0.6228856371367951
0.558863584980776
0.6167723169227538
1.0
1.0
1.0
1.0
0.4855570262774968
0.5319448922474498
0.6061795773844268
0.6336381997234843
0.6392610746872899
0.616752402763504
0.5961390892377105
0.5660078833185507
0.5427568716190002
0.5647217967646914
0.6055668006509303
0.63034992528582
0.5891122089606284
0.5777174126351823
0.6316537659443017
0.6009322915518691
0.6656102165060355
0.6238528458565361
0.7419515395072972
0.7760548147922525
0.7074381625216606
0.7119938718499335
0.7910749064096555
0.8013035376106469
0.8644545016309912
0.9237959290761666
1.0
1.0
1.0
1.0
1.0
1.0
1.0
1.0
1.0
1.0
1.0
1.0
1.0
0.9244374999941911
0.8510886106060795
0.8338994761161727
0.7690427766799093
0.7101341769746756
0.6189826132467682
0.6767823891211503
0.6060524639510564
0.6397557957573042
0.6102712018823815
0.6034850801173096
0.5876911708646008
0.6120090611613925
0.6071751169851456
0.6118375971846653
0.5806855734687961
0.5897526933909821
0.5997414235567504
0.5681465877633392
0.6180603308694745
0.6173819532395891
0.6320713321839375
0.6011732867919106
0.5979801463425414
0.581461126584461
0.614788956045245
0.5853329125348762
0.5917687740898241
0.5659272274374557
0.5817518431299408
0.5746359947300562
0.5672663464917573
0.5213662292998927
0.5467059828882096
0.5168318726647241
0.5342657216507143
0.4968525440914336
0.5187114490245854
0.4773060213750643
0.49862533051491936
0.4343257147789929
0.46421500093187057
0.5101220342029065
0.47283150341832325
0.4851091764080282
0.44388271291136255
0.5045664766284219
0.48074104955766794
0.4775749757093683
0.4079290612799915
0.4447858079309895
0.45715420101025633
0.46631988717593875
0.4154337378019678
0.5183771288424837
0.46340296633312406
0.46111342495564556
0.42512387948435526
0.431044940926445
0.39534726600886305
0.44530579079616694
0.4725225622431332
0.5309934415965053
0.5722316224985515
0.692740989061566
0.7766063544625539
0.7243878299071159
0.5886527390013224
0.5967309756340943
0.5276537714210308
0.40435493899455527
0.3865448028894528
0.34826408616529614
0.3893429289532411
0.3655806995601417
0.323777991610814
0.2526573367328312
0.4352066498460361
1.0
1.0
1.0
1.0
0.0
0.28042252106364557
0.22873409226165992
0.31087921847604943
0.28492266428536334
0.3123569804652795
0.23602841286754553
0.23160614377826122
0.1571119199511318
0.19233401507744996
0.25657482055373987
0.2818521417378871
0.21383844914330236
0.2413972314940726
0.23733401674613944
0.2863072337760366
0.30692611709023976
0.32930579640518143
0.3442704467208123
0.3672976561985454
0.4377142715233833
0.4124338198554742
0.4618278343085658
0.5496075574637008
0.5653888527482682
0.6599781495233211
0.7615813471462338
0.8356022169311466
0.9033439270919154
0.9731746073540762
1.0
1.0
0.9494090224674668
0.884945129406745
0.8150244354815299
0.7430184304754311
0.6660018662097277
0.5809015866572922
0.5062244145567381
0.47748574498835994
0.42910390464313763
0.38742630759703633
0.3490250304384359
0.3603540298213342
0.298171442206534
0.28572047443686027
0.27630351265386477
0.30683699818651206
0.29470968326135777
0.30778387083295894
0.32391015335501894
0.3247005301646933
0.3381152416712485
0.36760194164793114
0.34046014769122507
0.35965925364068285
0.4017101045989199
0.38014542075747404
0.3836680603207671
0.4092667539227053
0.36468791131427114
0.3876942756811288
0.4187043959974268
0.3703545355468683
0.3815088311219356
0.37491485303518673
0.3959232350134607
0.3553610590492368
0.3882400953489095
0.36813514322358004
0.3478273392541239
0.3145519257010081
0.336937480400914
0.3560784010175017
0.35101721102531347
0.33911864761285954
0.368030598436734
0.3617313204986459
0.3720160485896829
0.3396205031890146
0.33486178007384526
0.35294030095436424
0.358033091772451
0.34537971339948853
0.37044897274846733
0.37842990461828635
0.3593958433041057
0.3976758064693024
0.4032502803053058
0.46586631294551556
0.44468506371372546
0.49456482154287007
0.6009420692665024
0.6631038215582754
0.5747634887469187
0.5567247421237703
0.45661755952496536
0.44011959258590966
0.3971979895174075
0.36930594343773626
0.3557577703440392
0.37464727057742875
0.3732351037535054
0.32820962484362093
0.2958201394445373
0.9053836637147967
1.0
1.0
1.0
0.28738170062411666
0.13392640713891338
0.2956754438667515
0.2845374502098768
0.31507037311780584
0.2869210623431812
0.3093152821064435
0.2931921865677506
0.2755346784418101
0.3058377645995628
0.30597279034917013
0.32964354648030625
0.32124474215108795
0.33617059898167606
0.33310351761292684
0.34778478718089445
0.37403645881621667
0.3981367530309451
0.4365103892705838
0.41009083883213593
0.44271944255374135
0.4947279767794708
0.5039740843120342
0.5381043539000399
0.6238015875890401
0.663136468560789
0.7731465670090047
0.7726630753875637
0.8600188603067606
0.9388169696692412
1.0
1.0
1.0
0.9797368759566332
0.9417237348732804
0.8825545478714746
0.8361706836899362
0.7540486284837294
0.7001111174619961
0.6080915929583851
0.5937107590842393
0.5286748147422629
0.5259937411646216
0.4909347598950668
0.4715298886818601
0.4452725945027888
0.4614727926528784
0.4121522182184238
0.3928045850115337
0.3493419362200897
0.3803352304836955
0.3885332481678855
0.37789935104607997
0.3953791081842531
0.40485119840658756
0.41690136176030573
0.40532377246571105
0.4273466621956242
0.41679936984673505
0.4300082452610498
0.443295052956563
0.467225813099484
0.4425743672946247
0.45668684836576035
0.44787635825872807
0.45201831696210865
0.46003637030902034
0.4632827261888933
0.4244857332492586
0.42911944845008965
0.432974296571839
0.4416029226879331
0.4192124557418353
0.4054623021143843
0.42370193007337187
0.38657789703525997
0.4241070076940388
0.3993537283533284
0.4095785425602013
0.4067100126592795
0.40744402013294734
0.3730171742335184
0.3975598401063855
0.39555013554303364
0.4170697250050107
0.3865556581820968
0.3969293638913786
0.3634537318601428
0.40657522556944004
0.38559464847431524
0.40218023562639704
0.3867454099124146
0.39148452981817206
0.3965920934493452
0.40247462772836606
0.38141200581124846
0.4222353217398072
0.4498348229366772
0.4998907273442389
0.5725764589716483
0.6372905181465616
0.6278944305897571
0.6150410498539209
0.539059302059135
0.45656836057780936
0.4524211943489333
0.3899326762364659
0.3964252711868713
0.4063188903010776
0.390495050538088
0.3729833493440954
0.3312876766106149
0.316320533195369
0.8145358781312432
1.0
1.0
1.0
0.542561226000998
0.17605187678884476
0.3486261230470479
0.3233866782964411
0.3548370933604216
0.3009291331975687
0.32286770764740536
0.3150325890427562
0.3426261211456303
0.35325148730866757
0.3319781361042845
0.3281194618480324
0.3550333178347681
0.36075545387832453
0.36139081613628277
0.3795536593167821
0.3958447695295225
0.42504923137805867
0.409151309811007
0.43491234998493866
0.43824379556332166
0.47470450332257286
0.4575322260518405
0.5124754515428915
0.5392518289815291
0.5855983643617876
0.6214460702040585
0.6702880367687697
0.7140657193790123
0.7628085418394197
0.8330863207396877
0.8910164819993242
0.9376627089092213
1.0
0.9852254551389705
0.9228830440707106
0.9306719961310108
0.8811684580369136
0.8251927662727354
0.7499869797159266
0.7147129717982693
0.6498589411636274
0.6096904727309733
0.5618359878780448
0.5643631080053867
0.5043505136102759
0.45985528580127344
0.42302683146902276
0.424531044853362
0.3786483491834127
0.39391415443075406
0.3790909398815255
0.3693850001539187
0.3638972399900003
0.37434471718648865
0.36987530338101393
0.3595541712722675
0.36526817088571795
0.3809477097568347
0.39762727266412884
0.37123863686281544
0.3646841027170743
0.3712927860083723
0.3838874747982799
0.38313525600695486
0.39722975080368944
0.4334119456522608
0.40228652181856006
0.2881902046525852
0.3447677970550265
0.32694047279059735
0.4284756296867071
0.34921532265138333
0.3661074487642274
0.4299449635647886
0.3788680866572053
0.3172656972133058
0.24372476590545733
0.22837347419381143
0.27620885164434655
0.2446088591204923
0.26828163375332287
0.28416736320297986
0.27383926212770504
0.29193572043649374
0.2821685172887845
0.2894573646056801
0.2715224740187703
0.28160793868666795
0.2657588979015894
0.2865243002066692
0.2751373019435407
0.2844965184274044
0.24638452634397773
0.29870547945439546
0.2738795762714305
0.283015863844037
0.2698886758245657
0.28178632133050135
0.2746819923966471
0.2914339543104593
0.2819640510445696
0.2998396109202094
0.3002928836636926
0.30832388888920076
0.3284285803869465
0.36643566725707044
0.4292043646832478
0.4952020948196626
0.4841319611291808
0.47536325953972697
0.4417548901611519
0.38347254951505194
0.36286599872554837
0.34330636474823634
0.3215249355967603
0.29039387881839
0.31555751972864743
0.31954387822916686
0.2873207152674967
0.3100588208807166
0.8517725987165878
1.0
1.0
1.0
0.41455229339190114
0.1227778417358305
0.2684042304915869
0.2401688259689662
0.298723516581907
0.2808906297176013
0.30761245458742026
0.2792336213377963
0.27528644033409283
0.3178348879661018
0.2988032896706977
0.29398652392453123
0.30986728904327243
0.3192430374066436
0.32569084751365074
0.35324437372375816
0.35298919771694076
0.38531314559249996
0.3784533427354838
0.420119926033899
0.4034107312976277
0.4380636861738587
0.4521648453562981
0.4807745698095343
0.4892829193830649
0.5271403512425612
0.5541935601168944
0.5969585431513219
0.6225253817788523
0.676843353053651
0.7286360351593741
0.7621917329557027
0.8133112328054874
0.8231460408775728
0.8539072782045014
0.8328465942294049
0.8505044760895245
0.7752734984558748
0.7515640697080154
0.7236240888315542
0.6094160683350542
0.5646597110016469
0.5548984974077378
0.5079863377069442
0.5015760863889963
0.4661170990614461
0.47043067140482553
0.43259929092561455
0.4277431598921594
0.4130053133492864
0.4189146815732694
0.4076668367468523
0.42280114051478945
0.406493361189978
0.4133093500888479
0.42416775558526754
0.4198810631370839
0.4373495046961545
0.4316288536310515
0.4433602671137244
0.4530016172634819
0.4762446908548911
0.47137540946797307
0.48912897496484237
0.48344989897770985
0.5004525175827832
0.4730234045456152
0.49128323519571515
0.4730293291320514
0.46832409016768156
0.4667573993447047
0.4750564945339259
0.458740998671355
0.46985687229676215
0.4539884924679474
0.4601678938872169
0.44436458889503977
0.4443562509904983
0.437311809885084
0.44632023831434653
0.43258077824632296
0.42868334877631115
0.4389463507196125
0.42556928161177987
0.4396593888964711
0.4273248831313742
0.44537447534324137
0.42350537046595027
0.4569180370230095
0.41854151034455195
0.43307503362697525
0.43531718582399614
0.44646549140126446
0.4344813528217359
0.45158308158521654
0.4513896489137291
0.4585512338306842
0.43591630340580023
0.4617128308704149
0.4392898883297523
0.4746466973451833
0.48848284173307743
0.5216140117068125
0.5544810825180994
0.5977833998899295
0.6540599035741289
0.6454104496763684
0.6428540565739412
0.5796017922622834
0.5378300418691194
0.5059369574069542
0.4934165179654121
0.47322451684017486
0.4899537928992396
0.45838080602317904
0.46861895291488487
0.40237327671792655
0.4885356019532514
1.0
1.0
1.0
1.0
0.4201823877090753
0.4022685331680134
0.4524392759653667
0.441290275531452
0.4592133888095032
0.43882939209739524
0.44644164276619547
0.45918479035449955
0.43655138320175924
0.4557988552410226
0.4675686856252458
0.4537192617271031
0.49360873475514494
0.454733899440457
0.48822649870897
0.48738124883242345
0.4996316343362831
0.510519194225066
0.5377633776671248
0.5319666298732193
0.5507664471108776
0.5618785996225497
0.5772587777645981
0.6013444198525502
0.6329774994594589
0.6514513011239775
0.7023701807174231
0.7360812364012075
0.79324067827365
0.8403466486567922
0.8907559634301918
0.9361893521460607
0.9713776954616726
0.9868202589442493
0.9760331686723724
0.9850348857236242
0.9569989117002038
0.9272514999086703
0.8535076224920151
0.8145543739175867
0.7581105912883235
0.7299413537744339
0.6931723623462782
0.6707885530835891
0.6412892308603869
0.6269784829177826
0.5978703085890628
0.6137716941183587
0.5754772778085747
0.5917240124519054
0.5644968902343601
0.5672717255202158
0.5526061844352012
0.5651819706422926
0.5337155611526777
0.5397788343386388
0.5402295006273046
0.539810525107306
0.5345246042271941
0.5356052669029476
0.5345923340731074
0.5422384663795695
0.5513205360204385
0.544081202138602
0.5574979348869833
0.5600075736214201
0.5671720519789438
0.547614905658447
0.5688792062070445
0.5473078390989041
0.5636518967345328
0.5336389092416206
0.5487894405868629
0.5479003978102879
0.5375016454705098
0.5626057991885635
0.5173840722829792
0.51939791149698
0.5302063738313338
0.5389954063333239
0.5315803544190325
0.5440746913414045
0.5076950020937679
0.5100032060036775
0.49958822168132766
0.5074810327675285
0.519606111750918
0.5258548356222791
0.5331643302721034
0.5178883243133369
0.504659768088562
0.5145473736487359
0.5071538401499309
0.5346190077527908
0.5358005965225616
0.5822204783133496
0.6057998878727444
0.6796176927316588
0.6890062983585687
0.7139059624098965
0.6935582134147521
0.6560411651567717
0.581180380795826
0.5601082910856905
0.5085444122844263
0.4972477671696699
0.5098281440351149
0.4938255050625095
0.48365338795464974
0.4465303282150222
0.4911268634635172
1.0
1.0
1.0
1.0
0.30700209242898235
0.4330610548445527
0.41648952521687477
0.45807910019780795
0.4253856807079227
0.4449219971474882
0.4236715087971666
0.44609079873332147
0.4167776124302248
0.4556115685250492
0.40070940332868216
0.4467868749983248
0.43830802316992284
0.4543401818092521
0.44972726575871763
0.46848621114981787
0.47784620835991465
0.48555303278898715
0.472569340773849
0.5316136339379259
0.5072963916228443
0.5315950975058631
0.5413612281270501
0.5642945326417705
0.6111614341773958
0.6336464251344858
0.6816630603922986
0.7187420901744966
0.770146747438168
0.8096582325848077
0.8563143679448075
0.8869441743834606
0.9227865398358694
0.9067478865432065
0.9047647732905724
0.8678963959636699
0.8363693151246455
0.7794326277959792
0.7281647807318028
0.6834745275473881
0.6349873437119703
0.6061406571488759
0.5787360440909032
0.5665823564174517
0.5470490571999924
0.5234587491309124
0.4953626968741819
0.49432614917881185
0.48410662046754993
0.4866743173117191
0.480898010202046
0.4908297066082568
0.46704194630978935
0.4880814395776728
0.47997639880498333
0.49991982878563246
0.4778144674234655
0.49999505549936485
0.5118955767660743
0.5424880823875008
0.5372718766326232
0.5448574685040583
0.5235821441377746
0.5346429771714006
0.5265920748909102
0.5233479788176696
0.5120218194423882
0.521697456120791
0.5263787498910407
0.5050443412846299
0.508490684940144
0.5079545152929953
0.48844138200041237
0.4969704545811432
0.49258112946534094
0.4844894524599999
0.4947887106985239
0.47862003706759493
0.48894021958961664
0.46516719694930186
0.48147050981426914
0.4607066975792932
0.46836214392485315
0.4563496903893924
0.4645070038253983
0.4633857161773237
0.4547993929041674
0.46141721966520466
0.4544939576573193
0.45604277013259686
0.4534228971615649
0.44556238069852405
0.4445246002062899
0.4592417970259718
0.4437402991181427
0.4710754931596103
0.45399895133557766
0.49978256234165963
0.5141075630754968
0.5795194583715387
0.620956569389708
0.6275172001975424
0.6046628332203572
0.5418610219951798
0.481124135605664
0.45588445590414395
0.40817032247568025
0.42338337380475854
0.41350918083083094
0.41321309990946087
0.3703721958441992
0.32517151713809106
0.7585313888137055
1.0
1.0
1.0
0.379497999422716
0.32853044663691505
0.37601682469108993
0.36622186561269954
0.3556111595828321
0.3494052532797603
0.35534498750247456
0.34398654728466677
0.35450702159861996
0.34291310701230227
0.35954952798700524
0.3691024874909903
0.3839228604046738
0.36932444484411686
0.3904446511731311
0.3820352404340178
0.40736071444045685
0.4124607045081949
0.42767412806410965
0.4440172395986884
0.4658794065438646
0.4861849492281606
0.513223946370704
0.5406979745650865
0.5849508208314178
0.6116141255870928
0.6551221066655812
0.6965669524571553
0.7391542395592398
0.7753812533060355
0.7885352797397147
0.8061445572839953
0.7791105192710207
0.7805366548927262
0.7250603601283204
0.7030688283623128
0.6331247656941897
0.6149190063934521
0.5585731235590019
0.5389565545279776
0.49320197547858713
0.4913090446328635
0.4516564699089334
0.4656496559587797
0.43942776023829594
0.4408136904825649
0.434502763303848
0.43975971640266137
0.4309717795305955
0.44592446078550685
0.43172332917945583
0.44406779648088535
0.44647122134106637
0.4527939224505988
0.45727216287048006
0.4618597526212757
0.4685672393680555
0.47052327595538285
0.4708914313398792
0.4799104636912309
0.486159789386259
0.47857241486442686
0.4934869228402551
0.47405027047099957
0.48697931411074596
0.47597826348028843
0.4853226876652362
0.4719734060320072
0.4849705729145814
0.4752051647697256
0.4789794912477724
0.4709709133228914
0.4822953357714363
0.48323377806472945
0.48315693465491416
0.4927124922749787
0.4758430693378255
0.5011660653361835
0.48311541200650643
0.4985065709202205
0.494009366849665
0.5063855340829617
0.4909022901754329
0.5115475365137381
0.49899486592966147
0.53387304123627
0.527822376252116
0.5738018996502394
0.5767671575265396
0.6262680346038005
0.6827085810483742
0.7054293377554265
0.6873146275217945
0.653485252538825
0.591202691370212
0.576028344911421
0.5156387374586188
0.5337789994317473
0.5021905488586964
0.5236372487162212
0.5064144525411383
0.49459009402682996
0.5392121008045192
1.0
1.0
1.0
1.0
0.3763065233994822
0.47096881042493893
0.4623249650157133
0.4900321273749665
0.468489051382669
0.4889301133667939
0.4641072187418227
0.4892392908586234
0.4800346114703573
0.4964343624631321
0.4853133208809717
0.5079423317573051
0.4967982700484673
0.5111941373165341
0.5152091773114293
0.5310405392863806
0.533612270446558
0.5464931553579379
0.5551451318233261
0.5732496629863721
0.5888376556747639
0.6036238544331775
0.6435572265362113
0.6841413695678028
0.6841419226281126
0.7290362306500157
0.7841746472166188
0.8179497948138164
0.8743274432354218
0.8918209084750932
0.9136694433049083
0.917295310863721
0.909832659166239
0.8574799718526002
0.8471447399415728
0.7842585961886414
0.7588693322170261
0.6874081898260053
0.6697073864562992
0.6222673347889248
0.613843584756377
0.5813550680524967
0.5670999789550494
0.5409836298353603
0.5275362832186852
0.5289867985128753
0.5184965166034848
0.524391908289752
0.511660273640207
0.5275032596542799
0.5222438569973041
0.53478580338702
0.5310910139399487
0.5509679113776602
0.5535405226592116
0.5674981624648281
0.5613605246845738
0.5687021961498624
0.551376926304583
0.5661395873129205
0.5523809488320122
0.5573119655060553
0.547964104991817
0.5465737553997146
0.5386224894448051
0.5362696980694405
0.5252857539352098
0.5230003406330198
0.5268156803030344
0.5197758864514185
0.5285931579506575
0.5248182015242616
0.5069958948258473
0.5070078584726077
0.5188718833677142
0.5000401792549481
0.5109291570544463
0.49172545833418024
0.5076290139656995
0.49138934957376856
0.5070379142578888
0.49075204170758935
0.5050894755423981
0.4883559471358687
0.5178260804492988
0.5253821141141672
0.5660311210180968
0.5864524317569657
0.6475346927926068
0.6541631337386817
0.6671591751084487
0.6346828264056423
0.561766744352741
0.5335357526668092
0.48925612760096343
0.489263994455608
0.46754670972375995
0.4708576585076085
0.4668622752758453
0.42232409109624935
0.3767847537892408
0.7925066551013318
1.0
1.0
1.0
0.5345379815965476
0.364301728650937
0.48079535690680375
0.4163826403296745
0.4417494561388577
0.41082373939665323
0.4280275671889089
0.4044850366982627
0.41518244944001426
0.4131111401411805
0.4284906225537181
0.40995738337839177
0.43148313205921535
0.4392691566987196
0.44067359943700757
0.4573059456459105
0.4543427991622001
0.47580505827284875
0.48093587464755283
0.5057051831348602
0.5053942326184437
0.5313569871821471
0.5384621740562359
0.5790987635976891
0.5945491579510586
0.6297590058228351
0.6606223643880769
0.7045748823238878
0.7307102421097309
0.7683392190637617
0.7833570959383009
0.8073988772931454
0.8047847981939208
0.8042798240266175
0.7738393146780737
0.7551878679584382
0.714998860856039
0.6756955506344191
0.6354465045214933
0.5971681940934276
0.5715893822795476
0.5492382637549216
0.5496167491308495
0.51776789795993
0.5241514499926989
0.5038224515745395
0.5153528694463676
0.501158432646721
0.5176813300802234
0.5086487318441958
0.5205448440498479
0.5207110638370602
0.5277068215363272
0.5232400715505612
0.5402594351284975
0.5324644022387502
0.5398538167974217
0.540283864515465
0.5451735181844765
0.5359281050917065
0.5416021657692379
0.5489308005206676
0.5364134260952961
0.5471336679822784
0.5475163069975347
0.5289305814465506
0.5196647704427849
0.5158575894232988
0.4999160184572872
0.512649102890615
0.5019566464829398
0.5130277146822342
0.49947703793687037
0.5201379450346693
0.5167641809593604
0.5231015031034836
0.49881132303027853
0.5140832437724774
0.5111995844753986
0.5048018723578498
0.5083780882643111
0.5145420197121663
0.5191666883434296
0.5199994106011732
0.509216136945803
0.5227227023407371
0.5573952559045214
0.571641098728063
0.6142132180459045
0.6731676210563796
0.6736572904815603
0.6720925447948302
0.6430703786840998
0.5770547785863448
0.5486325894590361
0.4921012735299414
0.5021913976560063
0.4775829204827461
0.5071126201851819
0.48052273113275296
0.4337549186675906
0.44024516522066454
0.982232154234038
1.0
1.0
1.0
0.44571093633778336
0.403313263370252
0.4640262812417693
0.4463006276566005
0.4404936432762926
0.43800504177512833
0.435771851107429
0.4320309467129329
0.43291976504705365
0.4448474905960464
0.4341277098404747
0.44644200186067085
0.4348291201216437
0.45191554816519197
0.4505759711078271
0.465698230407552
0.4639396587612975
0.48420979611337556
0.4739782375264651
0.49414849642595005
0.5047238841622518
0.5315004330917572
0.5257440583247704
0.5537664693235731
0.5690974591459097
0.6029061541148824
0.6118434389684108
0.6508063684789803
0.6709775981824476
0.7054502768031143
0.7370895314158632
0.763314337181248
0.7845137655503203
0.7941525305844389
0.8116912160639458
0.798957323231999
0.7948373508855635
0.7320944809234331
0.7141187762735635
0.694883822618764
0.6660329155372874
0.5949744308587253
0.6073032998999325
0.5687963053664282
0.5744769641169332
0.5376706129780082
0.543349099163404
0.5259199711436178
0.5163567097957169
0.520018566877302
0.5121295064007361
0.5252215921024292
0.5304040180673731
0.5182858035581523
0.524321561400214
0.5341763852842775
0.5489122932144398
0.5528726622525981
0.5447974785867042
0.5495729379941328
0.5470933378397846
0.5565939071999324
0.5453903247547844
0.5559560544718967
0.5422004480958599
0.5493645502503288
0.5332255812529322
0.5366973657480468
0.5207258277732666
0.5311038348795176
0.5125172632695953
0.5228654751813175
0.5030771623650308
0.5201876934773224
0.4926489925997587
0.516720824953409
0.48137265463541257
0.5022254055391612
0.4918386039771847
0.49999993725132097
0.49535214984655
0.49223219481890307
0.4967006149446493
0.4917947837290349
0.4958672840998769
0.4979294314784788
0.5073052728751521
0.5067407574135194
0.5388860369322199
0.552624565892238
0.5930052651989073
0.6551625996864283
0.6765427602500991
0.6858005973300149
0.6499064891051957
0.5564207911156094
0.5481204965694021
0.4857366458833191
0.48081040441272843
0.4773599364226702
0.4833387348134329
0.4763873990540023
0.4222841986850613
0.41518810269043077
0.8608575957460264
1.0
1.0
1.0
0.5150337057134445
0.3600954529505648
0.4637682853542566
0.4535528194713698
0.4475705547394533
0.43719823254382123
0.4306366625081897
0.45285990917254504
0.41567748032273455
0.44887577388450123
0.44598904116985566
0.4352970590389849
0.4296843007058183
0.44198666270429543
0.4493537908796067
0.45617348403493674
0.4509585169632113
0.46772832330233427
0.4731514787563034
0.49281700402609613
0.4944825501329849
0.5058339288892733
0.530393092041044
0.5649793459937209
0.5847005424698949
0.5734480860569796
0.6103659592168607
0.6192934128808744
0.6614122758476709
0.6849716643935491
0.7302009995024508
0.7435254727621554
0.776149024589769
0.763840440241666
0.7754901189230397
0.748353879186587
0.7467774497927813
0.6924715163526931
0.6773649819983583
0.6368173028486505
0.6247269786940195
0.5858723016248323
0.5588829635619357
0.5276599934443059
0.5306598416102875
0.494149484693114
0.5087141052797034
0.5108655288739955
0.5099110853710216
0.4990764078055352
0.4958467853188672
0.5078133205865407
0.5024013771483916
0.5081642182160978
0.5081411561095371
0.5179913955599753
0.5196509053843869
0.5271883822683114
0.5109597734078649
0.5311954044306219
0.5145539372457362
0.5321343873380997
0.5161470958206723
0.522592519576584
0.49838649464377205
0.4979967287142307
0.5116693502189678
0.5133576617800715
0.4912522067446791
0.4843292528856652
0.4786725329557047
0.4851075041470859
0.4929785359171251
0.4896536405753099
0.49163741000086836
0.4855072233838607
0.49134066738731696
0.4931761354475147
0.4924111383143546
0.4575253160133019
0.5015904069728258
0.47139245094177573
0.5143194338773582
0.505717399567605
0.5715184921499743
0.5544180866777212
0.620825401326647
0.6446712259482783
0.6524280549919106
0.6164392765745094
0.578086669622739
0.5283805800467225
0.5083250910449697
0.47491565347735454
0.4898998018391896
0.4592151815333372
0.4685665982550865
0.45957968345695804
0.45845239164989293
0.6468465737246313
1.0
1.0
1.0
0.8837888792507371
0.25964373555950604
0.4032913046795311
0.3698892804708878
0.4531345284201419
0.40367281586262616
0.4281456112232778
0.40578124302123203
0.44695719298606285
0.43490906808052704
0.4343824043103245
0.42734905342306284
0.44829078465920863
0.44476020792101734
0.4489816108525638
0.4426944779815015
0.4549258664403382
0.46970790021625364
0.4842081348001413
0.4846280342443312
0.5033146948382949
0.4968974864429218
0.5216744876364925
0.5480602376830117
0.5583766651971097
0.5672185571521411
0.5916585451034763
0.6131951925600981
0.6272868697302763
0.6674049816331581
0.7201024313529775
0.772758744563921
0.763265153258624
0.7917450101898407
0.80052148711805
0.8260383656043209
0.8085945493897688
0.7979097165403358
0.7577046716030565
0.733085955484642
0.685876846767554
0.6517518626520071
0.632894944551162
0.6084754730686585
0.5905025617605212
0.5811569565233332
0.5575634462723916
0.5384379449405421
0.5462267423545798
0.527912223323792
0.5542286287213565
0.5333666116140711
0.5448212298267276
0.5306196645423003
0.5758481916676009
0.5452533090912703
0.567459982448038
0.5645921296332709
0.5907542672355359
0.5700673123984338
0.6064269375028364
0.5693405262862125
0.5848781222235221
0.5694475601328194
0.5790887082833798
0.5694978859212407
0.5755478596362081
0.5599763754861828
0.5632685691253776
0.5428699700136548
0.5508733052515693
0.5422625286702513
0.5306861659278609
0.5280886622885363
0.5294657496876788
0.5421859071645513
0.5383628422025648
0.5533079331706291
0.5614275595344472
0.5910020896099167
0.5811132008211837
0.6492693650838071
0.6638962301984119
0.6909189236971318
0.7102819695672826
0.6613242986665091
0.6072547638712763
0.5594637474243955
0.523660449391158
0.5099913892740902
0.510877365073043
0.5181686151047067
0.5338073482163339
0.505760008755211
0.5119670899387797
0.7257165912186684
1.0
1.0
1.0
0.8513645754525282
0.3125930265889094
0.41603346856586443
0.4282882178146138
0.4737120253453845
0.4667577459150575
0.48336558858375883
0.4546625480925897
0.45915301139860876
0.47176052784742917
0.4747174124613143
0.4709303301980513
0.48076486863818635
0.4957283631597604
0.5014031147020771
0.484838582135336
0.4793173361746873
0.5247767503694393
0.5252871406465204
0.5186023704747585
0.5474856734234038
0.5501775534110624
0.5821951893330437
0.5946769857225742
0.606741624612898
0.6094657137796474
0.6248464099895752
0.6576280329051192
0.7187712720571022
0.7226062411264833
0.7526494982415248
0.7542495313632612
0.7577907493220937
0.7711156619082672
0.774656847454064
0.7405836048570588
0.7304577227098088
0.6819364912268209
0.6520563180357432
0.6170998416905322
0.6020196679332102
0.553746470832839
0.5392484637385682
0.5163430788068408
0.5182552802827655
0.5167838364989853
0.5214415211769958
0.5142346307725603
0.5195625499602421
0.5464560898383142
0.5447834751521643
0.5630499342267699
0.5748428680915758
0.5931898031605072
0.5941842223189806
0.598683313035949
0.5933981947754268
0.5941644635288601
0.5920827415039562
0.6089898532598836
0.5482030776948392
0.5871796839714831
0.5671659355605451
0.564331142847194
0.5426721307137654
0.5470361609012003
0.548155998694151
0.5284300824988344
0.49774743077995637
0.5254607925428674
0.5195263558042565
0.4857499346149269
0.4965099463094093
0.5001217376878818
0.5212145509760664
0.5037825386533782
0.4993620830125784
0.493438142909148
0.5018533822621796
0.49178770797716
0.5252778605436815
0.5546256650676119
0.5971876213932547
0.6076010764037536
0.6854284661545218
0.7010924506699752
0.6639267473245585
0.6090067632051307
0.561148895807079
0.5013757414178521
0.46439942630291864
0.4843530071037797
0.47713965490582017
0.4710786946950606
0.4418967224586505
0.43120362481855656
0.6194375374128501
1.0
1.0
1.0
0.6698780992390497
0.26703614834584355
0.4443749971689991
0.41306286300980577
0.431126233500372
0.4007201625137416
0.39112580856040113
0.40301745577683545
0.4079443734893583
0.4170614355013556
0.407393959513068
0.4165992456075157
0.41363833457996524
0.44289678838355406
0.4402431090096205
0.43362615363760265
0.43633191263872523
0.434937828701753
0.45997099035535804
0.4716156466873563
0.49359803666336804
0.508631421844248
0.5386881062280114
0.5252788971416162
0.5815005343543813
0.5941848386382457
0.6382822350929782
0.6388267748311456
0.6793754209154407
0.6938428244396369
0.7395111798431275
0.730592393661604
0.7667716374821257
0.7218103874407878
0.7343877459908542
0.682605620913043
0.6751848722058961
0.6346708461698158
0.6225050682277754
0.5793235491741934
0.5795524840334965
0.5606810690086923
0.5578943285349494
0.5397899523452783
0.5520225730835939
0.5483134198543769
0.5716568379213005
0.5825804994867912
0.5581188115656305
0.578165371920901
0.5702640591695913
0.5968185963702028
0.5723471806853684
0.5867858350396855
0.5823341618390001
0.5859745308552097
0.5673705289807642
0.5934141201341705
0.5812106665235152
0.5613066725288209
0.5443632054020926
0.5502874463258592
0.5521591102284976
0.5486947376937115
0.5366967813344174
0.5373962092370137
0.5337635261882225
0.5309079072584992
0.5212118112693119
0.5147097215902718
0.5222026151635307
0.5113598812136667
0.5338672799104475
0.5106698819042702
0.5082471555992669
0.49005682822596697
0.5392184500448056
0.5018447536817071
0.5299991884824041
0.5037860221908912
0.5288925847321777
0.5111475558701931
0.5532987128400119
0.5792999437144419
0.6228673390165207
0.596939223248868
0.730163000100061
0.7200042570327211
0.7342531786425794
0.6596683339927989
0.6010258100674165
0.5395853107480276
0.5260533770181309
0.5125821904710237
0.5426078872501222
0.5068847056591801
0.4256632456980226
0.6918983712304015
1.0
1.0
1.0
0.6946987070829447
0.3398058634498661
0.5317591713250202
0.4613338755322416
0.4931314733327984
0.41845149214419325
0.4673166091946418
0.43332081658916105
0.47787292801673775
0.44778991912291055
0.4767218354795074
0.4588433848400387
0.48192694678361647
0.465836195633152
0.4987914108097716
0.4956286432232398
0.5186129362588429
0.5165376256585075
0.5431804359166942
0.5478541767710506
0.5692529512704245
0.5899673858458929
0.617145056007238
0.6436208737585277
0.6590718697440678
0.6984944658416277
0.7053942839763974
0.7528328588626135
0.7740736102663328
0.8087533004844687
0.8114586973737701
0.8311237194018798
0.7969917099788344
0.8000502586312959
0.7531961377901576
0.7312095376864711
0.6850983098029721
0.6772544907038242
0.6323812666768227
0.6267595906168738
0.5936042189260662
0.5868945670900453
0.5774620061969963
0.5785085702280206
0.5932689676010736
0.5831237098948878
0.6015837054193806
0.5929018103659855
0.610333240325489
0.5972263598490317
0.620149416313973
0.591846330001436
0.6180446375840566
0.6070650900289671
0.6380817898481151
0.6152381864506691
0.6296155662274477
0.6089048867404104
0.6247837772875122
0.5915264314569425
0.6069502938215431
0.5953471205457503
0.6040095094631377
0.5815508126671143
0.5870693711706778
0.5786082874539761
0.5823935550859741
0.5647177469177125
0.5743192536405965
0.5635573132561026
0.5590970163918552
0.555707371019411
0.5576275647860892
0.558973983718286
0.5528033067102566
0.5679239820656105
0.5587810933642372
0.5781453555722993
0.5987813953183891
0.6468654045433949
0.6533859482891256
0.741901813545036
0.7730961779767035
0.7846681780105629
0.7621087006069394
0.6670720476070506
0.6069694381653581
0.549006570421005
0.5444394257445107
0.528976857647729
0.5522827222573927
0.5026610534360756
0.43068969702413096
0.5789127057074563
1.0
1.0
1.0
0.9919849263433338
0.30367243719326353
0.5251256266136857
0.47454420780811635
0.49409099945636414
0.44976235424623906
0.4565504476573124
0.4516452768338093
0.45235298411190356
0.4562879345607703
0.4320339669939317
0.4520133849058975
0.45459731134595077
0.472124895536011
0.47745504226618946
0.48551580110388093
0.5066433809465032
0.5190556304755668
0.5422717898768786
0.5483705854678095
0.5697375363479602
0.5785593544039982
0.61370298944076
0.6395451853865637
0.672582241067099
0.6822542656367897
0.7269475250666252
0.7452186591250787
0.78130274648481
0.7854256245949065
0.8264602875724225
0.8123732514470445
0.8222875399904124
0.7761529972922032
0.7700181928420178
0.7288726058125594
0.706725488390876
0.6551727245778188
0.6561343021548001
0.599331779818443
0.6005325341994985
0.5900090729402288
0.5927871072676998
0.5767060866809024
0.5838432181984644
0.5869516739911693
0.6009800874803287
0.5977745947387563
0.5963927135667141
0.6134761802736967
0.6046250849593985
0.6052941221431066
0.6048694142512087
0.6225977650088583
0.6069710018804763
0.6162173173353869
0.59791612073761
0.6099175654016178
0.592174342866758
0.5966896574713825
0.5648374053313149
0.5875143259021633
0.5618749156313338
0.5711111335309826
0.5420571231426349
0.5460215617764652
0.541981220918267
0.5425130080133316
0.5262927719222008
0.5274004279942553
0.5265875349924778
0.5238777759364661
0.5169107923128877
0.5110825081560957
0.5212430958530108
0.5068046677483048
0.517546884978998
0.5319981151049298
0.5640335184205532
0.5844047460061575
0.6246366160479541
0.6722923375270055
0.7338464124792823
0.7046224097308652
0.7176083458109508
0.6045226816553202
0.5537765579836564
0.4893474968951949
0.48529719410739663
0.472450349767629
0.46770281059400876
0.4765786907073011
0.395269127487839
0.3247311374847715
0.7485644216753992
1.0
1.0
1.0
0.6728583670100278
0.25447935570191244
0.4584160125952847
0.38033382728371806
0.3963495681021455
0.3537589599376866
0.3735015662684388
0.3567499405424585
0.36177823384070723
0.366123714274785
0.3732031939438943
0.3666431908822053
0.3685217864838734
0.3826737573147628
0.386504468475436
0.39469216412162067
0.3969012474924617
0.4108772200205629
0.4386257678962947
0.4548782494383114
0.47491136744958756
0.47882369109487416
0.5103173701631433
0.5297293975773015
0.559759018002834
0.5691755649410821
0.6238057261514385
0.6007771219763655
0.6560300816073265
0.6540495817940419
0.6946325001794831
0.6770587778960959
0.6976026230436798
0.6552157645319571
0.653318355259674
0.6084405499329592
0.604190448622177
0.5550665511014797
0.5570399462463577
0.5118400941887186
0.5331845754448866
0.4947644160582775
0.519947774869262
0.5059050641709287
0.5286307469978039
0.5235250341888497
0.5458756467901298
0.5383639958021121
0.5344096335370462
0.5301223331808427
0.547688262489597
0.5430368076445118
0.5218546655884513
0.5457980929785338
0.5397382045125619
0.5434721012227913
0.5332610047558652
0.5308635574281079
0.5107651274243383
0.5199218938865016
0.5033593538436838
0.5054529069739592
0.4905890984229558
0.5023919367655411
0.4850843284508544
0.5032086218197767
0.491965303229252
0.46977401151909837
0.4943286852105332
0.4773512971691609
0.49026502222151624
0.47070933690370753
0.4659131214429001
0.47499957759343997
0.484867793542706
0.4724799743753573
0.49238695320764353
0.47188082464995806
0.5113197313849766
0.5251876336874955
0.5873265929931071
0.5748663169500607
0.6893533230291291
0.7015937802756043
0.7186735155853416
0.6741597562028294
0.6104515274960939
0.533526529943757
0.500812629785467
0.4209750645733317
0.4632021259721354
0.4359217824223326
0.45014975308978933
0.3835324288938021
0.3264761441003898
0.574706751382984
1.0
1.0
1.0
1.0
0.28871768912731144
0.36381445983695987
0.4171742733524053
0.43406021434213987
0.3953212349912847
0.390327426310765
0.3600177527928467
0.41660217630108287
0.38112588928221813
0.4072418365318954
0.4032836555543645
0.4216141353886475
0.41509594820385914
0.41002580166582286
0.39876025702183926
0.4458135543755338
0.4347024758303354
0.4524463194689464
0.44970574370108907
0.47060416208041367
0.4967421742060497
0.5163840628916475
0.5059928337390919
0.5156969359910175
0.55417814037352
0.5604185802891437
0.5768353268238691
0.5865913033751841
0.6184168126236742
0.6353728252632083
0.6817344056993064
0.6622553782032556
0.6386075238096072
0.6578258986335449
0.6721822799935862
0.6469682642948343
0.6457203087102483
0.616127113080158
0.6218273245428871
0.5863670675802923
0.5737282097601712
0.5186412287011573
0.5183664266453418
0.5099374240551658
0.5220178059123709
0.5155230064178595
0.5312843769326328
0.5063305296157887
0.5154530795669863
0.5370777206533793
0.5265217076579065
0.5440714261581764
0.5370436424446585
0.5488898419671769
0.5516781859339727
0.556393706656857
0.5412100571606018
0.5686951407633452
0.5460157766548397
0.5401378104782845
0.5318366330268682
0.5338008752925262
0.5133971050411592
0.5236137099247113
0.5013352049915529
0.507245808256793
0.4888281426133821
0.48952781923228744
0.4779212942263573
0.478677188027073
0.4688800571242745
0.4644039399667168
0.46387360802236105
0.45652933712577043
0.4767260037165018
0.4608449155469231
0.46423899722756357
0.4488543403166837
0.4615276533443575
0.45088777900479676
0.49365017187582144
0.51632481499217
0.5464374275797097
0.5693024579372097
0.6938781951965579
0.6762414895651968
0.7062931075387215
0.612815912552093
0.5666196689763919
0.48803870835877816
0.4343140567731041
0.4164699669751214
0.43973831140836694
0.4085616990603268
0.41595753940477787
0.3331597131245423
0.38360180280350675
1.0
1.0
1.0
1.0
0.5733636415681431
0.11997847472718486
0.3896686102560062
0.35081216534004656
0.3926867959078849
0.3300211357813772
0.364156846072169
0.33940547299099644
0.3639494916049473
0.3358853378543348
0.37778623284339047
0.3560203463592976
0.38155969487655594
0.3645449539152502
0.4018595219102187
0.3965508842112956
0.4202204252519078
0.41185064892761947
0.43460468605093433
0.42769979117821116
0.4423998847454856
0.4526051040147577
0.5012353420815236
0.512572321535709
0.502504293834905
0.5435433959741328
0.5475015125497201
0.5873079605439196
0.5773342580275084
0.6367489697187494
0.614039921054632
0.6546059947499775
0.678069352123609
0.6809604433269351
0.6646449218300764
0.6836040967818995
0.65951129791954
0.6468890974641928
0.6330220389144811
0.6096168869281942
0.5709969732679905
0.563353458195421
0.5478666134874511
0.5638576753118951
0.5520069893309136
0.5375457786755262
0.5347465351153764
0.5470264266876173
0.5568085789969712
0.5482705402422086
0.5603299929684444
0.5663307756976735
0.5760392327299818
0.5592765443572534
0.5767443991327663
0.5771565401123453
0.5905333499885825
0.5759148400720493
0.5681434136129437
0.5793248170775642
0.5592419642190036
0.5243732527894029
0.5783568563971785
0.5172990622808651
0.5089751371164756
0.5035578399280126
0.5001243148655917
0.49590782579786996
0.4919402410278191
0.48792342530741406
0.46790965939958173
0.4618103522763185
0.46212023266411395
0.4781259364155862
0.46204826220935596
0.4617908519445889
0.45911480948461003
0.4970836120311609
0.4838196679932092
0.5120740558873076
0.5141630350067999
0.576095323573406
0.6431400104216829
0.6837880097208506
0.6702423175490422
0.632553126027322
0.5216787294086559
0.48291608521265755
0.4084284895420957
0.4301946498552452
0.4011553614328033
0.4230677034280351
0.38635728794407537
0.33560980832208537
0.660867700572122
1.0
1.0
1.0
0.4996192290965181
0.09566209027457022
0.3412096639263687
0.3067044006526809
0.3604860601741747
0.2970336082971018
0.3395808040965394
0.28851846356152777
0.3355506469627274
0.2980885254708184
0.3258982148758021
0.3113063546129729
0.3395545445519789
0.314817038462529
0.3425519877344721
0.33400933864770443
0.36287449882335665
0.34305201591901124
0.3718709314552239
0.38229845463209217
0.4026256024986356
0.41159213809015993
0.43045513997827245
0.45363413507663114
0.45859188470777895
0.4798452180632987
0.5063755540646052
0.5210535497596348
0.5382064241123248
0.5720560408968246
0.574160987788096
0.5910986347965717
0.588332109428229
0.5850863098817809
0.5542812929359215
0.5539402662355081
0.5151628652469705
0.5004542303873303
0.46072687345579205
0.4531767795233127
0.4240811880534756
0.4253246915370247
0.40337527547475344
0.41163130574438406
0.40457469992010997
0.4115565933198515
0.42218581902315233
0.4238484859830349
0.4254879890290713
0.4313106057499221
0.44199026769240995
0.4362726836345292
0.45004702084698156
0.43733783683313493
0.4534028346514437
0.43848268076216357
0.4548622070599525
0.43477768590446314
0.44219547253860825
0.4158261555672344
0.4325778554137217
0.41458279812791154
0.41241467736000786
0.38895193655339966
0.40209075304928027
0.3826292152259335
0.3932285681626687
0.3804683267835765
0.38161046209377575
0.37201485302215404
0.37912275997419237
0.37756131470782966
0.3871427410888716
0.4107307028304182
0.4475933552418523
0.47794138913332
0.5576716465120211
0.6144858845409172
0.6075575660576853
0.5887610655175168
0.5031833296683607
0.41954015393189464
0.34006073848422
0.42118410592018163
0.32085647132892436
0.3297238450954448
0.3326870922126327
0.29510449598312427
0.30119926781836853
0.9768940571286052
1.0
1.0
1.0
0.1815632024481495
0.2717386596134652
0.2939365011099014
0.32221855692883844
0.2984312380357517
0.2970165302448152
0.28269334275946983
0.311089384982004
0.2986221658791016
0.3156449279471716
0.30291961381283405
0.3188264335676902
0.3090569357600585
0.343400071705509
0.3299460318069438
0.3593641701590928
0.3515102805539077
0.37651809763749144
0.36662961745413764
0.40979509894677035
0.38894558942426694
0.4151173364011257
0.4324600301126959
0.45356712736748894
0.46255503679601145
0.49994491140085373
0.5051121780657934
0.5348631673503672
0.5484683680221548
0.5678846335398349
0.5706154210956499
0.5647797038746164
0.5640215362076899
0.5512598695913491
0.5371001855265731
0.501913060907094
0.4823735802077529
0.441964181421704
0.4207249894394172
0.40312129560203624
0.3983440105214617
0.376229123237276
0.4024854371621009
0.39135252005565724
0.4134617437935952
0.3949798988395221
0.4251629083862686
0.4122567764406737
0.43902188541077763
0.42985220465634333
0.4468069521568897
0.43693287543744663
0.445522970271063
0.4518986970372164
0.45039669571155094
0.4483135535518367
0.4394933187821223
0.4440543146713492
0.43276475351943133
0.4324672995325316
0.41518928652296677
0.42739640096107856
0.4136209348787573
0.4223304369893781
0.4122938975572006
0.4325786885120048
0.44747634427887295
0.4854843790637028
0.5023187767126936
0.5939847910909968
0.6032161818908314
0.6209691523127471
0.5673767058264383
0.4942926592185306
0.44500334219176824
0.4025630046235363
0.394242662538582
0.37871707992524617
0.39713150284122267
0.37292887893201687
0.3672272653800713
0.5048388474334004
1.0
1.0
1.0
0.6314601042990395
0.16233846604971433
0.32926364302556604
0.3097513350840718
0.35028997688845664
0.32265077386775554
0.330895400826166
0.3289566991097355
0.33726115151496716
0.3375545729588469
0.3441716277421169
0.3429962092862178
0.3548241041421068
0.35103170944160655
0.3681618822594448
0.37860158038443903
0.3930973219523106
0.39490805445703686
0.41891824157238905
0.42092461864678893
0.4492082402212345
0.45922688172642073
0.5004548499124615
0.5042880017745565
0.5419894875133069
0.5468681146328996
0.5949466027063297
0.5880262541004442
0.6407072242987495
0.6281610293838535
0.6529724835793466
0.6279882817958429
0.6257040994277778
0.6020860819735192
0.6023211090314302
0.5462286641014853
0.5211736202129328
0.4685525608096942
0.4710249229685573
0.44097917768170125
0.44248435538457115
0.4311142334222242
0.4358105170054512
0.42842275266310625
0.43571434894846944
0.43372639428855964
0.44483008876980357
0.4591709101295229
0.4571687526866576
0.47845389436665375
0.4781970543094287
0.4904473464211498
0.48877777978686704
0.4959607228996898
0.4962835201526102
0.5053021044575969
0.49977348291658863
0.5043995211706633
0.4865016658844102
0.4926753679807586
0.47411671893781
0.47659111515690356
0.4693335257478455
0.4684389838783122
0.4643274940300547
0.46448880485429667
0.4957759094219865
0.5295736722888419
0.5423900115529031
0.5907333427064233
0.6640921859537816
0.6448027049834772
0.6395748221442062
0.5303224473876504
0.49771835420198113
0.41884675824449
0.4271695780133671
0.3953040031042332
0.4287919009266738
0.3842633577856621
0.34991389829474356
0.3156340312518922
0.9657177964238791
1.0
1.0
1.0
0.26652356353806284
0.35791901098920825
0.37797379667962394
0.3484718903010138
0.33681866265133403
0.32754981848478665
0.322452868267706
0.3181176939574691
0.31239986953654125
0.32600966045066837
0.317361039061283
0.3323610166794883
0.3412793606143239
0.3478569717557181
0.34201830509679476
0.36940286226862246
0.36303069331103605
0.3952441482283853
0.39809589407016077
0.41908235006722716
0.42204348689899857
0.45420775551367304
0.4589246500924424
0.4871933500303511
0.5027070505267293
0.5399779610935584
0.5557407993050294
0.587838053351395
0.6035133989650211
0.6250720557770173
0.6201522952835985
0.6178957966202918
0.6178602702991701
0.5873858339406681
0.5716573157608292
0.5294043283117975
0.5145994138824012
0.47926728460344636
0.4605888544689701
0.43252971717843225
0.4464697913026545
0.4144993074082845
0.4454294630938548
0.41544960098344397
0.43522960301370767
0.42499414319546486
0.4352583041175033
0.4304540566380214
0.452071421189825
0.44199697112441594
0.47276369040614846
0.44358490893447106
0.4607293918177776
0.4691603840428966
0.46346837484291115
0.4612598507730981
0.4650559141991336
0.4647591805246735
0.4654455198640437
0.4606742264134767
0.4482650509610684
0.45335056459657624
0.4536074199712938
0.44397403048846085
0.43840363867890286
0.44553282846974024
0.453742989047062
0.48606450876613555
0.5015886523964294
0.5362169983033234
0.5971292101406332
0.634071704527224
0.6265758150872289
0.6079741516899324
0.5208912192012469
0.4754364857781675
0.41772409498547897
0.4058723206963415
0.4066861842510791
0.40103098582539165
0.4046332876146737
0.35979395674538955
0.28868442066378147
0.57676773628704
1.0
1.0
1.0
0.5507637637391265
0.24935602973992094
0.3870909346896966
0.336563784638813
0.3405150692323204
0.3193391895177018
0.3146611213454019
0.3038478010115459
0.30760960335327353
0.30879814456105337
0.3147706839976488
0.32202887773395605
0.3155453150886956
0.32361462245860295
0.3374328135850367
0.33576930322606846
0.3459786204665078
0.34995654411627913
0.3625352850466374
0.375935846780026
0.3891783984851478
0.3993664321069545
0.42423274813216116
0.4387296567982838
0.4685589850915822
0.4847260011716695
0.5144479260520162
0.5285410162085128
0.5651580656346742
0.5717465898181795
0.6006312009530075
0.5797402098848704
0.5817724268460993
0.5546179286694222
0.5481215888161559
0.5019575993510265
0.4868851509338895
0.4523265543574725
0.43916085292559914
0.40334445621774806
0.4030047607661883
0.3833807888581545
0.39010843776253507
0.3753020448057022
0.38324208611891697
0.38248949750455985
0.382671202322373
0.39022386819986404
0.38751252968179106
0.4046268632466246
0.4030358237969337
0.41302977903770277
0.40427190210952907
0.4203300006092757
0.4177259820710796
0.42527122558100566
0.41881375435156487
0.4247798503135483
0.40750802915768364
0.42506875909855657
0.41465421746351394
0.4249070629586117
0.41505089681947754
0.41738180268825387
0.40482505301545685
0.41278353652944977
0.3993731817214669
0.408290999113005
0.3948610311161544
0.39726503629840115
0.4032462143593049
0.4033964511111295
0.4129057789615119
0.4163025664881942
0.4533735999200369
0.4703438597127353
0.4995006444097182
0.5629878293793196
0.6064162865023255
0.5960193680920051
0.5902765161095621
0.48969028709499085
0.4563848501639457
0.385376059123763
0.39937708687354856
0.37714155293966795
0.39494361386359456
0.37625073676332665
0.35595474780920916
0.36397969183440304
0.9391307814393943
1.0
1.0
1.0
0.27845699125901946
0.3103701854148281
0.35804355363846363
0.3642178337662891
0.3512791447442772
0.35374775318553053
0.3407073668114178
0.34733135451692343
0.3499162989893172
0.3631333911662967
0.3470380376179872
0.3633910037818156
0.3599789791633464
0.38152638367882
0.3710978706755214
0.40524535716532756
0.40132626161647017
0.4194862004551137
0.41039930309409794
0.43809611476936255
0.44937217704265775
0.46877803815256724
0.47804306988749046
0.5043677781263084
0.5171317985193988
0.5445747745838199
0.5738386120554081
0.5901882211151376
0.6197438844973954
0.6437342855023905
0.6680452374582806
0.6652609165592539
0.6762387211803628
0.6596425152920639
0.6602381852064058
0.6346994021186675
0.6069917445792659
0.5712633308078255
0.5626146504045711
0.5190990951238594
0.5040648272282804
0.4693174622577662
0.46963926444714865
0.44454009113872983
0.44789729219104935
0.4287086760187212
0.4330700051111254
0.40969580332606814
0.417137266202913
0.4151245730089994
0.427009380427173
0.42662184488059596
0.42530205161489293
0.4324846447511496
0.43590009313280503
0.4481906878404085
0.4468770795374037
0.458703442533862
0.4564821629250921
0.46339566982275765
0.4555336663888524
0.4612251052057371
0.44601027135576177
0.4507587197921256
0.42427626596960916
0.4362699519476191
0.4133642211897655
0.4135634671441705
0.40244565824053496
0.40067587133445687
0.39757560027269356
0.4004777668168423
0.3875019749361434
0.40186301767808646
0.41020137413111
0.4265097371423078
0.45047837135099167
0.46277775269599086
0.5183257299182904
0.5539949373680157
0.5578025126584951
0.5487323259930836
0.4968611572250971
0.43512439424151494
0.40887983568972325
0.368430424985118
0.3756108361377321
0.356101040967427
0.3724123471593944
0.3367930112000802
0.30713906760507786
0.3896007531490399
0.9656050600131001
1.0
1.0
1.0
0.25308951357639997
0.2741686454214142
0.31018110051369074
0.32087336663444005
0.3105644959377908
0.3015718580087774
0.29940679002651593
0.3044026199556732
0.29767752416814214
0.302371532323081
0.2996234490394031
0.31990017268214394
0.31072273226819436
0.3237468710011075
0.3145558072081164
0.3418671632853054
0.3364082213668526
0.3626331368129499
0.3585723605461758
0.3829195103491612
0.3828416946023635
0.41423437328447543
0.4208497880456964
0.452618552815992
0.47653019324449214
0.5089217245721319
0.5352391328572368
0.5743447647401414
0.5985643463080744
0.6262412856637859
0.6449474045547854
0.6548849697242403
0.6549641826438142
0.6387418996048712
0.630239586227751
0.5906042343146398
0.573043004021601
0.5415954145534861
0.5303059737018662
0.5036280708455029
0.503131207411248
0.48303715139148107
0.48626603570801646
0.47194366855767067
0.4724482252721378
0.46646558423158224
0.47416752353755304
0.46814106931967786
0.48565469532730654
0.484130509550046
0.49591713940364635
0.500520232798255
0.5174510336738337
0.5222634473146669
0.5292198316565829
0.5345921400067162
0.533192341546125
0.5369550551134972
0.5344116000516386
0.541966673316943
0.5249869479534264
0.5305381497071704
0.5219852821033308
0.5331027429475409
0.5080798489782683
0.5183440915649109
0.5000035414987422
0.5107434697759395
0.4899851590503038
0.5031742539463793
0.4828319548776031
0.5071792085399993
0.5172318042549925
0.5596940265228071
0.561496110032751
0.6153245367130464
0.6348861776527583
0.6338148442939401
0.6136398512652356
0.5542951090184064
0.5097488832531802
0.4690490537095665
0.44808768032063445
0.44379817763435325
0.4425582554623723
0.439428429041674
0.4347787146340522
0.3861563504278986
0.45847109351411824
0.9917067632410366
1.0
1.0
1.0
0.3530813448808887
0.3889273383393519
0.39664737893765156
0.40697137933766037
0.38236661551441553
0.3818342497052674
0.36716693570656006
0.37601195562917755
0.37331769776984725
0.37565394931977936
0.37637849732507433
0.39137233538348104
0.3888629500610823
0.3928742029092659
0.3971802937023935
0.39718117382392953
0.4092087607311948
0.4145131785833619
0.4282985767425921
0.4360278125502347
0.45832582870542476
0.4592072471746652
0.48510360890966603
0.49201657523816744
0.5241734929883001
0.5347355451039357
0.5770853423021045
0.5948771866472937
0.6303939334576768
0.6444364954607791
0.6735499162512139
0.6705321914068031
0.6782742190627623
0.6615366517879282
0.6356927633185558
0.6110766696650844
0.580680748164609
0.551774264388216
0.5211377746471132
0.4968748902282707
0.4824486263594533
0.470187266077707
0.44552271024165846
0.45146325256993347
0.4350006777393565
0.43882877969931233
0.4192120240529372
0.4427238729304034
0.43501251285735076
0.4441772844988844
0.4409136142839297
0.4615936724283326
0.44975623011186583
0.4660384357911118
0.45741841960255136
0.4732771545656195
0.47458568540640444
0.48025239182199203
0.48233580703543816
0.4826375037551867
0.4820925342888424
0.4839838436256293
0.4834281431544566
0.4775919399664309
0.4805047290156951
0.4648332264349099
0.4718120808839051
0.45245425955424884
0.4604881283605787
0.4502086678873944
0.45381412948017996
0.45186031937913224
0.4499993519646991
0.44155290000375136
0.4530213643349345
0.44110502138060176
0.4461696539340271
0.4383391369651356
0.44684606869585297
0.43761868822006295
0.45756401101836464
0.4487443196725696
0.4675662381936407
0.4786990968345096
0.5087812947376384
0.5234628826044083
0.5567294701511998
0.6128459953207903
0.6110044612992414
0.6252188964272742
0.5786507120282446
0.5329345262250784
0.4892978460377382
0.47182205242610414
0.44966890350569677
0.4597049817261104
0.4358613845710691
0.4579309856082376
0.41893065861953954
0.421555168966679
0.5997379032727421
1.0
1.0
1.0
1.0
0.37049896656018516
0.4119402666591748
0.4189254927257329
0.427230946574875
0.4119024042925713
0.42118867663622445
0.39757585464582557
0.409270146730268
0.40287386213451104
0.4140041094928719
0.40919535836368104
0.42182711481496044
0.4128439137263957
0.4284190007718511
0.4213600620474877
0.43963906814773335
0.435555478432074
0.4571159712828982
0.45056563110129166
0.46804745024816674
0.4697438529749297
0.5015258229038029
0.5004069842925816
0.5375857513235006
0.5360062721721888
0.580856878338445
0.5995690474479061
0.6335916365682414
0.6511933488302075
0.68621454669809
0.7055229670798336
0.729802180033641
0.7249303455730964
0.7111117535735356
0.7002306689558054
0.6682314843163397
0.645333791036156
0.6096288580672193
0.5850124182555951
0.5455541019130621
0.5353945880864273
0.5114190235257827
0.5057703230768834
0.48340130639673873
0.48633907167470725
0.4680788594809607
0.4711139789682788
0.4561203851380563
0.4693416675063157
0.4677510917154235
0.48173506888884693
0.484338001635479
0.49091078675552974
0.49425700953023577
0.5002272157732144
0.512775621870736
0.5143440019351826
0.5328115518102761
0.5289847623532631
0.5389118271967772
0.5273732362686465
0.540812632708288
0.5274833007455191
0.5301663911796388
0.5158398234956851
0.5305305861571503
0.510204678685851
0.5116254524153474
0.502506257278142
0.5127318836971223
0.4902079593454366
0.5026175423897807
0.4840495030954794
0.49226391328613656
0.48326436355973357
0.4916006639722984
0.48189706842701174
0.4855100646071818
0.47683978344886874
0.48435894610657754
0.47967188834220387
0.4851028121753174
0.4922517293801792
0.48627192726114765
0.48341750329407873
0.47476827205372746
0.48675534662814923
0.47846811894075253
0.48144295124248027
0.4743163097777979
0.4873085380699632
0.4750393119217537
0.4859493845914621
0.4738268626380549
0.4820404674966525
0.46768530253226104
0.4854231633890017
0.4742052739963395
0.4848154308606111
0.47704142847769904
0.48848010641806033
0.4856656807047336
0.4864542580960724
0.49202258305981095
0.507738050821904
0.541095851097338
0.5596794698422315
0.5928622025708064
0.6381391259625815
0.6724232617211654
0.6331626557459599
0.608827272853099
0.5503271129018801
0.5313593221843036
0.48596444432530345
0.5045767732062968
0.4764695761431903
0.5074209986250453
0.46728564441843795
0.466958586755167
0.6308623613799014
1.0
1.0
1.0
1.0
0.42424278515556163
0.4864469760163037
0.46525772820410394
0.4701649688674065
0.4359067262238948
0.44439489101317775
0.4268335135209106
0.43532375071581486
0.42578380599931503
0.44504941911357354
0.425816921944102
0.4521092577657001
0.4439519127264793
0.46157319180215783
0.4497142234645718
0.46418368845562546
0.4591598956278788
0.49157735051264817
0.4817045851835161
0.5164427673643534
0.5168163555155975
0.5473071976666571
0.5515047336221464
0.5799418168385564
0.6002673163361849
0.6360307069461177
0.6507554685428153
0.682894679581023
0.7184349564218617
0.752429312352081
0.77074541395119
0.7795830442157563
0.7852076786032821
0.773705788733597
0.7560615997300145
0.712325529155655
0.6834676050009003
0.637664249446076
0.6162375828380653
0.5774388235676178
0.5637668972221515
0.5335860175768434
0.5342500131305669
0.5081590710884303
0.5133208544314609
0.49153620807243803
0.5039724575431467
0.49030646404488765
0.5058027451574069
0.4971803052168366
0.5112533325539916
0.5062642436241674
0.5169630312340429
0.5216231543766287
0.5318842366178982
0.5318350024178287
0.534954813014035
0.5441984507576791
0.540766759629997
0.5419283026147645
0.5354660533363824
0.5418492203726157
0.5285712766676709
0.5346709872048915
0.5171588598672966
0.529085866530771
0.5106587785883066
0.5212921479608208
0.5044624123128557
0.5139060853655473
0.49834063227097225
0.5094313064291831
0.49994790172030196
0.5055132939856368
0.4958690320677972
0.4968915744361534
0.4910426910486822
0.49513262673961667
0.4887601702597816
0.49199184454288536
0.48905504899606667
0.49464755540344585
0.4960684892882682
0.4852163915792505
0.49864028266538946
0.4948786004948845
0.5017730822649389
0.4917375260319939
0.5110711977459127
0.4873646889271702
0.5047291561796731
0.4864377488916056
0.5010330942280413
0.4942408995439969
0.5103499479142781
0.49602009558999727
0.5098268784338867
0.49746869064156396
0.5226902682675041
0.5294444972597886
0.5614659054433917
0.5792971959635237
0.6265294534908211
0.6849425902268239
0.6671399614648512
0.6325312441297968
0.6063951782061697
0.5664020029889023
0.5274939169712535
0.5031020770286121
0.5018382639714937
0.5129939721207684
0.5002320639294007
0.49544407792458633
0.517807891190592
0.9357453089259117
1.0
1.0
1.0
0.5829059396533751
0.4444970558820212
0.5020035237245949
0.461865345158181
0.4645938053292145
0.44158992498080735
0.44502407131760463
0.431679376639383
0.43640867369195846
0.43324691216247047
0.4366845499216138
0.44201415908729347
0.4445723527133366
0.45238140447006836
0.45135746024614426
0.47007234827053834
0.4741793928489229
0.4958204914655465
0.49067688709876733
0.5209841495408402
0.519392539501794
0.5495710052636791
0.5531328305512102
0.5916779331832984
0.6031405239619758
0.6456686989412933
0.6591756046126874
0.6977835581329205
0.7237845373252182
0.7689077257356967
0.7797406377508931
0.796454334475558
0.7909876767139477
0.785136350315373
0.759623893547272
0.7360488712142725
0.6956521572014444
0.6648982671661005
0.6356330080808246
0.5959678940125698
0.5794354890772822
0.5550945594569047
0.5497008735703922
0.5258962179261456
0.5252463824133667
0.5058558141164105
0.5138191149173366
0.5052500241063589
0.528186801461665
0.5170243035775357
0.5407761529567804
0.5317478190586735
0.560454848817482
0.5549340027651094
0.5745242031592257
0.5719612344832397
0.5807414398917248
0.5757641582903126
0.5808901097250726
0.5811917472963005
0.5791242171333589
0.5773436081387034
0.5627401538688199
0.565917818048082
0.554294063385201
0.5582759156489442
0.5378850449947612
0.5462564023987259
0.5341194917548485
0.53946396289921
0.5225508434344129
0.538750275829391
0.5206021507358702
0.5402279976029162
0.5174977043770126
0.5254363350245291
0.5073963045000787
0.5219928104065232
0.509995229051026
0.5209305923516666
0.5146366839164902
0.5180121943152396
0.5151150336520086
0.5117357629344688
0.51150386330688
0.5193320185357122
0.5230850399446962
0.5203300914882897
0.5260195910139241
0.5220072189496312
0.5270689503284752
0.5198366285247753
0.531406040623424
0.5211321885473306
0.5369456541291953
0.5297289376683143
0.5467400714567786
0.5302892474180225
0.5504580931547763
0.5461927451702252
0.5677397534773145
0.5769765924646342
0.6187055489651707
0.6294394511072412
0.6951759079785532
0.7172763892030538
0.6892318255313219
0.665599061909637
0.6276176482172388
0.5950837121842815
0.563620197852311
0.5630498561992872
0.563156468514106
0.5766840382632684
0.5623525943014008
0.5761169286829951
0.817722176093368
1.0
1.0
1.0
0.6864403253823241
0.5370470128351815
0.5567795543649152
0.5363472597579374
0.5116734642357168
0.5031618940719651
0.48875671725720726
0.4882048557421913
0.483021784115683
0.49018796756528815
0.4949710365790799
0.500703248164043
0.5023370722246219
0.5007120958917741
0.5147042800931959
0.5144747953409625
0.5210591580095821
0.5256645879489802
0.5402297802395385
0.5466340429218415
0.563693399639206
0.5676500636589623
0.5965059165050436
0.6066214846614514
0.6413008986619058
0.6533388959547357
0.6891115517562494
0.7024946207780338
0.7482198541783855
0.7520935360211737
0.7971795796269372
0.7993172232461332
0.8151085545699279
0.798527581849792
0.7936608160373202
0.7542055940554276
0.7235922154512942
0.696172327108914
0.6593913983199998
0.6331629110577196
0.6101577413331644
0.589972077022505
0.570201635500198
0.5605704380767194
0.5452363411658545
0.5504370628886555
0.5340631052827041
0.5464097217515695
0.5341310786997797
0.5558108890929198
0.54499149320115
0.567493732446549
0.561037635390748
0.5728650125146031
0.5741639698489911
0.5966691456727884
0.5858258817287443
0.6095280841053717
0.5919369957939891
0.6055058367677674
0.5891435117024207
0.5957291865325561
0.58616633807177
0.5865625659633731
0.5695520647217405
0.5661454782137213
0.5587884808042702
0.5554068349918673
0.547714688889104
0.5407940764439539
0.5426367629872074
0.5264883008165341
0.5335842292093513
0.5252690034636045
0.534750980646894
0.5168877973224294
0.5326207413960742
0.5150985612427791
0.5198290682065628
0.5122285588848293
0.5219419346375799
0.5116367826585875
0.5203153427769258
0.5128318223606021
0.5173515036881506
0.5132764837803284
0.5150703422750037
0.5059856278518746
0.5130161093027585
0.5168278385853803
0.5108537454026468
0.5127012473159362
0.5067910351089611
0.5212144403071347
0.5072062231451915
0.5198382521520379
0.51357920849392
0.5252910570007043
0.5164404637722324
0.5381316266056655
0.5247245619867348
0.5477317824561785
0.5423055883488532
0.5874267323198796
0.5968813911959845
0.6404802534332926
0.678046495757985
0.7050585864549277
0.6546873834208264
0.6570293023669166
0.6019526436422521
0.5858915648731717
0.5554822405067209
0.559011866070255
0.5585381797677079
0.5691629928734735
0.5679970935610625
0.5885891223289532
0.7512971482726274
1.0
1.0
1.0
0.914010406024488
0.507440330370639
0.5645825123162329
0.5065637125382421
0.5273152360369653
0.4831730490948255
0.4969882148996251
0.4712868217381131
0.4842486064630288
0.46410824058586114
0.4857522535043273
0.4701226752298527
0.48645627961843935
0.47613035433285306
0.4920510018442902
0.49677710951999376
0.5045429277228529
0.5054928668944141
0.5131264500521916
0.5196177094483616
0.5320767447284444
0.5426091832377012
0.5557052899882533
0.5837159061013993
0.5930183095210732
0.6286093989338177
0.6390977270948407
0.6759150603249273
0.6852906537656812
0.7227494640173463
0.73268760059655
0.7662887801437336
0.7603859759942049
0.7752518312531043
0.7516792669240759
0.7505497924831059
0.7192566452844902
0.7021038438390648
0.6631601283453443
0.6385588485256355
0.610542843191938
0.588198352082758
0.5596297498902105
0.5399938283015321
0.5317771386538117
0.5157104217805066
0.5152982003097317
0.5001540090046757
0.5065485454295792
0.5006277374309437
0.5235469401198669
0.5047371889669581
0.5228899174746464
0.5152295968477146
0.5353116835722366
0.5288842872369446
0.5506735797014418
0.5409511522436026
0.5576966271113873
0.5537491907499553
0.5651468958048191
0.5622724908885405
0.5717171827318099
0.5588030372973927
0.5586099630298305
0.5475425568812069
0.5471066406207075
0.5393914811718226
0.5278520067598698
0.5269169899368081
0.5174690281360068
0.5253230062428537
0.5065959981590501
0.5108496644385445
0.4991793410234636
0.5087649577810749
0.4931750548663508
0.5029706294715418
0.48557529765344815
0.5018856060668614
0.48585951122575616
0.499080451177137
0.4794179410021946
0.4941602399063275
0.47837817014651496
0.49282917529836573
0.4799329562924736
0.48951520973197693
0.47425168265998846
0.4766393238041986
0.47737994854556665
0.48089649569114246
0.4722103015514481
0.47255102229082163
0.479280082764034
0.47232874021170435
0.4867017281084277
0.46801520747799447
0.48191665234398984
0.47111477372801114
0.4914062891029632
0.485274407884539
0.4999286750154705
0.4868345593273369
0.5175046762183334
0.5162433321734371
0.5549821483314055
0.5658028634792636
0.6085957254582778
0.6475345788350332
0.6565506994997741
0.6161659638944301
0.6059087761229321
0.5682379195630626
0.538576827044689
0.5140179598410521
0.4965401638752964
0.5074614388061006
0.4983842419126037
0.5183498544973245
0.5061269861206497
0.564411099589039
0.785564612294074
1.0
1.0
1.0
0.793118035219214
0.47125198973266225
0.4852764178794214
0.45706082207549653
0.442368398332492
0.4212371688018255
0.4002159613952253
0.3996285551916126
0.3845976910398279
0.38717370491352454
0.38119955262968264
0.39142105519579157
0.3970010126257459
0.3966668515553568
0.4060534607552048
0.41005814061782975
0.41852132809131576
0.4236681853909521
0.4306332664909783
0.4368045287272392
0.45183494356790943
0.45849408812115466
0.48077374125029115
0.48126522571566843
0.51673486853937
0.5118224473919333
0.5526779533591051
0.5547984096372387
0.5984873690859408
0.5968548488144502
0.6470822326624056
0.6544477639633431
0.6922988319494999
0.7011135208628074
0.7214460135304018
0.7084898016874599
0.7167788980528048
0.7018671770817624
0.6839273406344045
0.6548108407289152
0.6204949626807865
0.6002421828617706
0.5653231715174496
0.5368801864374848
0.5108559992310286
0.4954555125790507
0.4659871361991807
0.4687522373519177
0.4510488109220283
0.4580448441095613
0.4318528237439662
0.44709606979037114
0.43562729853133975
0.4549301379725984
0.4412090758777813
0.456765406436905
0.4478974673201045
0.4654724645887847
0.45569475178257957
0.4733004251120291
0.4675753057654973
0.4824351498998512
0.4814023094111003
0.4877818922803723
0.48614823368209537
0.48726044132821505
0.49143115692491524
0.47754836696484515
0.4776233631352774
0.4618484503900347
0.46127763716291365
0.4477659574481687
0.456342819146633
0.432163552557501
0.43489572011735567
0.4214706072737079
0.4311023559659296
0.4111410317224644
0.42017462475262934
0.4039047948892359
0.42134933621333853
0.3989602659922441
0.4228241644647796
0.40171955465637155
0.4158459282785058
0.39939992602099517
0.4090823057355963
0.3983986236789617
0.3994949845528446
0.40511439540853
0.40518638785088124
0.39693063023363173
0.39431261044623855
0.3992262666668259
0.3879199278853965
0.3940898672441409
0.3852604300165214
0.4067691968723589
0.38839672702453315
0.41575138824459934
0.3971613947635679
0.4278656382233706
0.41882272593211967
0.46347947252638094
0.45316794532176435
0.4965743326067029
0.5277863373953321
0.5693968635637898
0.5350927491695152
0.5296021231545861
0.4848140691832755
0.47705067641299204
0.45370452165350317
0.45560023121685356
0.4534870745665402
0.4855112102340676
0.496083723156539
0.5239669913452771
0.6609203219067463
1.0
1.0
1.0
0.9929311423607224
0.4745878697024216
0.49021506607194726
0.4371457965752533
0.46152598282675805
0.4226872078922163
0.44183874672980306
0.4126497625655759
0.4347165638424639
0.4194147813662485
0.4437203009519092
0.4186949317607171
0.45061934493651157
0.44196908438001314
0.4693505734572886
0.4569074748086039
0.48603204409078077
0.49226633587624946
0.5099811229875743
0.5257559033081151
0.5410090583313563
0.5614279570497975
0.5731671109547927
0.606999172797007
0.6183824262332432
0.662205250828999
0.6767314004694921
0.7071661503548151
0.7177756552165183
0.7674590100970391
0.7704941526240612
0.8132070096780073
0.8181230852994453
0.8435600686471515
0.8219853725971772
0.8302750026355105
0.7934037877135393
0.768384592168724
0.7285649949963394
0.706162776156417
0.6676565639412232
0.6374516227617948
0.6110861031785427
0.5871919651974503
0.5812274460034195
0.5518689728680448
0.5568410078092613
0.5351628319007887
0.5466413754712021
0.5266028637514559
0.5462805052741289
0.5408474819642326
0.5616113483020793
0.554544550808274
0.5776795684145326
0.5662194585700137
0.5931663874156038
0.5910885719262434
0.6155457457945701
0.6010206394525386
0.6162657424613951
0.5982589301453161
0.6050315229291787
0.5930598915836157
0.59685520522288
0.5835528313192592
0.5750091642306867
0.5710388156884166
0.561147061544581
0.5576341951996743
0.5485796425681851
0.542306784326827
0.5333470155243439
0.532566801217548
0.5199575367502509
0.5255716470869313
0.49897440643598745
0.5219277434882419
0.5057161449233429
0.521443375910619
0.5000075145742192
0.5056512642940449
0.491892496981117
0.5085410987031131
0.492717003632384
0.5087568640265918
0.501489069355935
0.5117625107609153
0.4937639912710373
0.5254075634178311
0.5271774625231639
0.5479032140162599
0.569417642623308
0.6002367126159254
0.6344157113531814
0.6630154988838226
0.6731965478692846
0.6530303929480221
0.6098717148520205
0.5616269513722498
0.5462776840442171
0.5073210187687083
0.5301807984794243
0.515508999015788
0.5473588703285662
0.525559826818489
0.5893505773220239
0.9104195455700961
1.0
1.0
1.0
0.6176706882470975
0.5316610377913683
0.5203503891755441
0.48214685186391454
0.4604755395522554
0.4460451934338211
0.4334105499406785
0.4246000260940904
0.4219374159817243
0.4158261985576529
0.42661752055840524
0.41273606093702736
0.4304006959040074
0.41354249459163606
0.43989712208828574
0.42968770018415503
0.4518983069830698
0.44160656470287085
0.4695036774226476
0.4588265014419129
0.4992663998247515
0.4989127593289314
0.5404376204578256
0.5416918312665363
0.5770867114313474
0.5998940397184815
0.6387710588001922
0.6561398219017104
0.6940169541875452
0.7144772591319766
0.7281177673318651
0.7272270402989301
0.7148723638668248
0.7013801960725503
0.6688527576682526
0.645445761851404
0.6006407584580087
0.5803873478001661
0.5370424414646772
0.5243441818668566
0.48560950081741117
0.49557760319045174
0.4645391729597195
0.4753050030838458
0.4544598547311162
0.4721822723503319
0.45073546796742725
0.4722683995408299
0.4607731582383369
0.4839233068918056
0.47243644370888144
0.4937423597253671
0.48989673294006464
0.5040152098094255
0.5050541274005892
0.5036729703232659
0.5150284378074589
0.5182474937128145
0.5216838758480751
0.5209857476469396
0.5271230742683105
0.5132331258423168
0.5268055060621302
0.5078665309365753
0.5205670744609054
0.5012897036914736
0.5174253850888041
0.4925665380252789
0.5061301511178052
0.47851468777579964
0.49759998262780414
0.47149634682391206
0.487833690827006
0.47164746761026954
0.4865312121469456
0.46876876124619404
0.4813558919277078
0.47522734000156175
0.48188591817228027
0.48016341748347563
0.48478336189375454
0.48443148953805304
0.4999758094358592
0.5255344710851687
0.5409177479381577
0.5713753244767273
0.5965099067225104
0.6433071430454167
0.6492608468843099
0.6603555292590226
0.6128988692554014
0.5856946066375144
0.5415060595377638
0.528424057007814
0.5082040864244595
0.5180977188557871
0.5175921811402086
0.5561266815533821
0.5584199499620468
0.7646506479753323
1.0
1.0
1.0
0.7946703566420767
0.5303716740222586
0.5578655299499091
0.4962406609187357
0.47685812633791047
0.44807281237900004
0.4437199403618094
0.43335441037571265
0.42010303282923633
0.4302981746568416
0.41634952292621163
0.4308433521955887
0.4252238644285544
0.4471005855606758
0.4336273676111763
0.4574857493381293
0.44926603084056244
0.4714130053779472
0.47227769554491933
0.5003873833895229
0.4923410308713299
0.5272372696059475
0.5474096075438426
0.579379563778453
0.607593959167201
0.641228979438088
0.664982458275692
0.6886839868217322
0.7209098094478084
0.7396820477656301
0.7568417250944254
0.7497877404729743
0.7412352937851538
0.7102780193225202
0.702747800443054
0.6516420726846295
0.6306133380611172
0.5841054552068381
0.5684258267273256
0.5206464822055729
0.527004489397792
0.49232222030334605
0.5026253324859354
0.4758556886375149
0.4888135704800779
0.47375649740897086
0.4931048152101204
0.48348806391270066
0.5061142302163233
0.5062737892887423
0.5208671427271874
0.5202593400417432
0.5248249349560707
0.53305146692037
0.5412958744197269
0.5485476460054337
0.545970904705999
0.5532526260799326
0.5511079997885427
0.5588189443684838
0.5397860162367552
0.5549719231690319
0.5344813331706785
0.5498970581955893
0.5224299391292007
0.5356877669441216
0.5140195481845875
0.5241753468656355
0.49499904730527583
0.5134101096432999
0.491075320495567
0.5078768741614137
0.4875807768392123
0.5005776010171934
0.48820891805051714
0.49275741107285204
0.4896870849415021
0.49479796759863887
0.49208793616054447
0.49370752062417783
0.5049158571762058
0.5000455650988299
0.5150795106725954
0.5166725974302797
0.5469067133851429
0.5594702683842008
0.598649141603236
0.6162531205764742
0.6722826417122163
0.6938720596580891
0.7267283709763077
0.6900176190952468
0.6795235849688842
0.6240339639695898
0.5938572364055236
0.5686135620015461
0.5774574471150931
0.570147675328475
0.5879138796086955
0.5968714269472921
0.7082773707397108
1.0
1.0
1.0
1.0
0.6642355824381733
0.5860713413942886
0.5479782096676014
0.49461982129747206
0.4832992993458699
0.45170899602047065
0.4483599042598142
0.42378398004408274
0.436370389774689
0.4155963833602378
0.4278655951473011
0.4156790439348604
0.43577082111858106
0.41849540334599267
0.4397705242167508
0.43183343214520276
0.45901604281338637
0.4595274942523542
0.4845886848657133
0.48421091551741774
0.5228567979461728
0.5299828430979234
0.549790249784597
0.5833802150569072
0.6136252212970813
0.6575153340363683
0.6807226152864934
0.7196557425441339
0.7354182000970425
0.775629200001678
0.7531944175142831
0.7783697413507094
0.7461895902694924
0.7490123149652355
0.6955578272977263
0.6878940671732754
0.6155409406199184
0.6073585818650998
0.5534491055289441
0.5603912484424808
0.512523144037679
0.5174350925872098
0.4900927511934682
0.5082678222416638
0.4962323462270014
0.5138494010286531
0.5101472354246946
0.5172015005533741
0.525982788478095
0.5426181987646628
0.5537808408571164
0.5588747727176463
0.5796208257298462
0.5727278292906437
0.587859816695348
0.5755020515354276
0.5958310729244995
0.5805728818979016
0.5912509678098595
0.5584137586614112
0.5760398862102061
0.5447524473299457
0.5794610445753265
0.5511814497564559
0.569690255150055
0.5414139626606962
0.5538833591972594
0.5301614893389492
0.5360948238876182
0.5274117341597109
0.5380257666732503
0.5244885205568958
0.5193642750112619
0.5191365059151104
0.5147911672774712
0.5184316447179289
0.5108731606252034
0.5207130537613532
0.5138445360750014
0.5207587241217789
0.5072200828931316
0.5354955332692986
0.5275231075196648
0.54843829410003
0.5175820175085748
0.5586478528457246
0.5427987930587943
0.5738286153203633
0.5883755382052154
0.6374796426474341
0.6450397330290347
0.7162209713698132
0.725536457864844
0.7413429491901115
0.6987924270287375
0.6598420717748421
0.6206772980897164
0.5936345712625621
0.5914998187041232
0.5877266766958986
0.6129474952492224
0.614915239294714
0.6693729660410079
0.9161312394203514
1.0
1.0
1.0
0.8926157187295903
0.6054180827043256
0.5781014504675966
0.5408984442225597
0.5017195691151388
0.4881046599826463
0.458546715668823
0.4569389269368321
0.43513610957606164
0.4398794326217109
0.4273104735150204
0.4269037111421879
0.42224375043837564
0.4231236197664091
0.4387278239279686
0.43869859195705707
0.4616000385896492
0.4577539065937959
0.4692504971895965
0.47649254670148755
0.5156355096400865
0.5119851792054414
0.5457588684961313
0.5360757950468305
0.5969281145836944
0.5904885684846111
0.648627525779853
0.6435832760036002
0.704668467131721
0.7051135618665644
0.7479338765011482
0.7446581960831467
0.7759597571755062
0.7513179267054227
0.7720951042971993
0.7326893484361461
0.7197860830044333
0.6774217840250538
0.6628418053140931
0.61986724425654
0.5896485276786718
0.5638806252520093
0.5400959310798867
0.5259082499018279
0.5096104867385944
0.5106543690718308
0.49456759110112697
0.5127527319872678
0.49944791272066247
0.517195400401272
0.5105113951001272
0.5398018380921711
0.5227581639970359
0.5566646927315905
0.5441288834205293
0.5751083876610272
0.5585385003223948
0.5812039390111393
0.5627890384239599
0.5836786698456995
0.5697850765369521
0.5750839923279776
0.5628724619785114
0.565326259749396
0.5556914840073169
0.549481620290777
0.5441594569837223
0.526213806532059
0.5346436035204956
0.5147528109508366
0.5244793470314005
0.5021228803820958
0.5176014494829745
0.49370724703263064
0.5123685631812381
0.47475824762444807
0.5033611998222728
0.48293340100093995
0.5150231532230924
0.47496514196186795
0.4925399294545006
0.4825109964414101
0.4974498408727065
0.48341462935108315
0.508794908863993
0.4779857831872241
0.5028385858093278
0.49218810742240693
0.4945571515843043
0.49573406920859026
0.5064605247027554
0.504444923269347
0.507182200914694
0.5183715049897424
0.5173740967308458
0.5514220323752316
0.5578841429555138
0.5897220165013991
0.6115018602576834
0.6715149322646777
0.7012541254835428
0.7662736105775071
0.7503228936141042
0.7497881702143572
0.6702237397593747
0.651028708171812
0.5916719909899922
0.5959144502677252
0.5802417394717253
0.6088819860388448
0.6059614290531182
0.6325993712997573
0.6707749852257917
1.0
1.0
1.0
1.0
0.9235743579898077
0.6089228469367962
0.5988580496155841
0.5598263618648943
0.5291843278503922
0.49265034864693885
0.4532487203712267
0.47048489531967863
0.44249099428537975
0.45776635468867133
0.43778496487964114
0.46134663966542566
0.44601038398342296
0.4673753843520735
0.4447956517233719
0.47363959694509816
0.4578747122225749
0.484776543031802
0.478403346409004
0.4959782144099097
0.518884604780864
0.5407750306365712
0.552175496892895
0.572234060426301
0.6075535763276806
0.6199864972380961
0.6602715119507574
0.6730098796663354
0.7152572978996281
0.726716291850656
0.779868114645573
0.7722236259027832
0.825891310626024
0.8144996936471071
0.8401419154496802
0.8050256947454348
0.8193499542760307
0.7758625972335143
0.7736095050172349
0.7224778272747351
0.7068800619660176
0.6433971961806102
0.6383998980818204
0.599224649468148
0.5849335054076478
0.5689696774094808
0.5608174245189055
0.5442847814090029
0.5391394394102114
0.5374537503817202
0.5432832312529567
0.5508819450070802
0.544661315946653
0.577686708055544
0.5721388734206243
0.5732815886590695
0.5750443010797601
0.5949951543496643
0.5915077235443194
0.6323411177968232
0.6145213071566008
0.6404719938547898
0.6166448676133108
0.6419286466813395
0.6137920109699042
0.6313392284241397
0.6101523794640963
0.6156172794831126
0.5836851656329272
0.5910075010178572
0.5793777792178416
0.5803881902987583
0.5671006325895439
0.5588505537447531
0.5515115560106663
0.5372935084383232
0.5526175435706768
0.522164392953983
0.5430915677286352
0.5215479476596085
0.5445772445398009
0.5114352964170404
0.53634848510626
0.5020473585108481
0.5285285740029984
0.5000087509649295
0.5149928227076978
0.5021693874418991
0.5176819087146626
0.49913244252652245
0.5207893704133645
0.49780941604790535
0.5070959265997895
0.5035795354913107
0.5336799078610569
0.5355609853953428
0.5446389383465409
0.5647359656126436
0.598349971694023
0.6213145906855262
0.659144836080768
0.7196535301762411
0.7283179440304519
0.7399621890205091
0.6895963573289281
0.6551238829120454
0.5987284915981836
0.576016935858008
0.5524267978124812
0.5799591101152115
0.5765040685268386
0.6091037801305801
0.6094323034290708
0.7529701357064607
1.0
1.0
1.0
1.0
0.6583470314359193
0.588764918617502
0.5471164880089212
0.5183798005260762
0.4804150279092596
0.45212286851356964
0.43999130598454556
0.4222995714096047
0.4251869164038543
0.41583199225622386
0.4255304141739056
0.40307563744586455
0.4278612784859449
0.4179029853447475
0.4438696574011137
0.42591642932997925
0.4573290731993852
0.44735509642638976
0.49334092806207036
0.47563009753664104
0.5158470163215119
0.5190035276298716
0.5546173082355543
0.5464471662206914
0.6013235178338026
0.6212395227992409
0.6605009851722791
0.6802750238081503
0.7297399570422077
0.7579632987915794
0.7794054016613661
0.8008729764501916
0.8082153933952407
0.8155013890149027
0.7873678663617584
0.7765911956936125
0.7391660375151019
0.7203588552048859
0.6665641877493422
0.6555638721673449
0.5941770074412095
0.5853570452969072
0.5252603421399483
0.5375420380719848
0.5000859699923637
0.502437907044958
0.47650054622296223
0.48794170914476875
0.46768040867216965
0.47813860512055567
0.4674211219964809
0.4841197326962182
0.49337511317607075
0.4958330136758506
0.5024698336567243
0.5069770256555343
0.5213181574618757
0.5248796662697093
0.5388446654701933
0.5347364769314022
0.5460714683206207
0.5348542157803233
0.5482027540258546
0.5314481945085137
0.5460432510221055
0.5114969145157402
0.5400884364049384
0.5107312348911279
0.5290914221847164
0.5043254127725147
0.5146618603502092
0.49350238838071164
0.5066762535994398
0.4800781383413691
0.4900286764809021
0.46784965173013965
0.4801234444680166
0.4668818787434038
0.46520607262623176
0.4626338357073266
0.45840318780833067
0.46802934278655617
0.45266025083682065
0.4749231431330826
0.45978868453504634
0.4766144572021501
0.46549039826313166
0.4813487696513204
0.4643808473474033
0.4861057412535604
0.4668703747857236
0.5090118611405117
0.4932515229745452
0.5305268110868995
0.5463257343343267
0.5919996113870838
0.6099383224434239
0.6616147046926448
0.6767525586518521
0.7073319005558449
0.656765163395437
0.6119281089148261
0.5797390808669158
0.5604081317229304
0.5488856734336628
0.547273570810681
0.5606289546895336
0.5786694879668707
0.6270657974140342
0.713634273610188
1.0
1.0
1.0
1.0
0.5996171943620514
0.5426810682037946
0.5233977304930464
0.49138561505948913
0.46773314825074125
0.44162519095258146
0.4423336471520652
0.4244940251612269
0.42667684032643177
0.41858023445932274
0.41601268424614
0.4239153861203594
0.42895082191640127
0.433016755735922
0.44474155057495723
0.45117557765924265
0.4589310947097635
0.48123204021215676
0.4937578578166012
0.5211286133387493
0.5281675582191946
0.5544364369876388
0.5702519555016481
0.6146692557698836
0.6106104465466996
0.6754748851282277
0.689689870951994
0.7418661226434153
0.749233751691263
0.815167370658249
0.8203021108364055
0.8636511703282626
0.8474259686800771
0.8664965411082125
0.8228651788198675
0.804261218948867
0.7651889375442182
0.7412730123305276
0.6970177610993538
0.678081471381627
0.6362122749924375
0.6027326396106787
0.582794184561696
0.5606028237664493
0.5594679463077095
0.5333310588386284
0.5313081305985146
0.5146830480280754
0.5448789939760014
0.5133402547021587
0.5482248445977947
0.537271344015026
0.5583435018859474
0.5533928142777863
0.5777787329604166
0.5704370753872711
0.5971701589193813
0.5872084621964433
0.6201636549707401
0.6065146680680555
0.615998091703551
0.6040349393152397
0.6132310549315545
0.597417231867607
0.5980790098884817
0.588357455420361
0.5858622317033187
0.5878474749018363
0.5705348000340901
0.5765715793667596
0.5488879513658971
0.5636566919854198
0.532176080112077
0.5524926425974966
0.5186102771513643
0.5396521138985289
0.517501914056363
0.5341145839121406
0.5037636555516711
0.5309896671452461
0.5087301888255928
0.5241571432961248
0.5032783341788046
0.5135518970785571
0.5001388251272659
0.5198483521119233
0.5028308653013666
0.514206000937906
0.518298299820606
0.5234340430525242
0.5202864071461659
0.5210123674779883
0.5303439839406883
0.5517514719969688
0.5672651142330541
0.5868652085775151
0.6316422257751562
0.6453124986257989
0.7220153102777387
0.727931184374841
0.7401784696265226
0.6981322038236006
0.6758833595771169
0.6112255899927128
0.6073368526162845
0.5940064800635715
0.6145304948915125
0.6135685483816542
0.6490154086251122
0.6578540806949412
0.8784034524085426
1.0
1.0
1.0
1.0
0.6240909962296848
0.6204966296902314
0.5660202076841099
0.5222201112316177
0.4920104024767535
0.45806467951465313
0.45967438704859803
0.4509239379925149
0.4553620453462603
0.42900294097040204
0.452876221206275
0.4275699996164602
0.4571366993319265
0.44445735947164644
0.4608745704756469
0.45543877335165817
0.4926217253187916
0.4794418511538406
0.5026241995456686
0.5171752398372335
0.5347272709638048
0.547173172847779
0.5711263759665208
0.6001450279419291
0.6344005733340712
0.6697014683399292
0.6977983779777309
0.7367467628438215
0.7510373713223555
0.7984065993905576
0.8097173657435699
0.8429885526011148
0.82138807501282
0.8319840209481295
0.7785539957006096
0.767484102151216
0.7098669454860651
0.7030121043524034
0.6400018809577442
0.6279011897254141
0.5757356622689318
0.5740708985790799
0.5361350093845886
0.5405596429376535
0.5073814026616359
0.5116410568542806
0.4948032108747412
0.5113110781688892
0.4980643973299254
0.5013823970470914
0.5011728333300011
0.510011701814301
0.5274508493862112
0.5253730453261977
0.547830128426931
0.5442980931839005
0.5593867084165189
0.5479972987799886
0.5615424399760963
0.547394364885738
0.5725525425746479
0.5414833164725955
0.5710115052103586
0.5350331298669827
0.5417107869720965
0.517273215864684
0.5374154363053497
0.5019921739007189
0.5185108415204034
0.49518467965766166
0.5116114357659612
0.4990325314148595
0.4928829346262017
0.4860210343326027
0.4867334158907112
0.4792074866075834
0.46218276793634294
0.48297046295245183
0.47083520521068334
0.4749119860905342
0.468275909486729
0.4925786331720984
0.4726620028962608
0.48977664614025757
0.4605390195523437
0.49214038890993467
0.4678615867787334
0.48767508556458433
0.46995818749411306
0.493149118532747
0.4797517627081165
0.4947383323050487
0.47378147293628026
0.5033242616269937
0.4979840570273617
0.5197110236475403
0.5200981891646987
0.5532528434077018
0.5765397865266735
0.6109431122260168
0.6454260916367741
0.7082804691887288
0.7395157902928762
0.7033193605151735
0.6839169695189184
0.6232445932809826
0.5881106960109632
0.5329364374684504
0.5577632426972269
0.5526189560844421
0.5840296650312479
0.5838745530511109
0.6577048986820179
0.9715272836396707
1.0
1.0
1.0
0.7109158894254362
0.567444120961971
0.5508567900667363
0.5102730997988603
0.4660559532137901
0.43208215498271807
0.41505969422831185
0.4087581499748323
0.39369362422152804
0.39608047761077814
0.40696463239783853
0.3962082418227813
0.415469940229163
0.39755977311951635
0.42837768081379224
0.41611141253921924
0.44635638788514936
0.43375595710459497
0.48316379651471986
0.4755981959752068
0.528133697059528
0.5248553250746096
0.5856732638302897
0.5897638753867349
0.6418522615301641
0.6609770961438917
0.7089959572657701
0.7333174601846898
0.7813917990260709
0.7851389785977568
0.8100990119131328
0.7965142809610108
0.8075112033918252
0.7714356405716092
0.7363217509088876
0.7111072534666751
0.6531179758784017
0.6229502342785185
0.5729169027677518
0.5438120717917909
0.4860794904008216
0.5011111129045533
0.45832689409764865
0.45858771832359635
0.4322238044491198
0.45097257658693435
0.4219650231164396
0.44904285026162877
0.4302052700999942
0.45565298762950246
0.4414944278535001
0.45950678065329453
0.45517186883391914
0.4709926836838715
0.48241449830302213
0.49701304678370295
0.4966247753703189
0.48975108919664584
0.49452798178157364
0.4808396790428556
0.48584164397590024
0.47295756287447643
0.47874382185340114
0.45700920081722246
0.4694969262367361
0.442198136708191
0.4592561558174869
0.42421125443121055
0.4436887402374218
0.40688557214657983
0.43011868335960945
0.3933795223772895
0.41897619231096356
0.3929464021869367
0.40489201545655906
0.38432547898250224
0.4050303712975377
0.3866609385666091
0.402323029663257
0.3941640113148119
0.3911311618017187
0.38846191159864596
0.3875845234901782
0.3794703429411323
0.3840838293425115
0.39117757164983213
0.3855556980911714
0.3827696987642111
0.37768338257385875
0.39394223670578093
0.3858550381296559
0.4050257795548138
0.3811578257570814
0.40627391296324833
0.3906644161649285
0.41688626090857356
0.40620043982808
0.42720436198876277
0.41899744383047893
0.4550983001719519
0.46434062799524345
0.48945788469320634
0.5151622604650041
0.563024413058703
0.613508861000272
0.5882244956408067
0.5736959789885018
0.5408130203000221
0.5282241425436652
0.4800977408268354
0.48177552439441873
0.4771109532351156
0.5170101700205467
0.5075507579400561
0.558323214146131
0.6088065707885836
1.0
1.0
1.0
1.0
0.49866158090079926
0.5015185345641646
0.46007453478433613
0.4163472777957377
0.398730523095402
0.3765397572523648
0.37293595811480573
0.352769773829433
0.35759241605811837
0.3561297188519863
0.35845737291711927
0.36633868075233356
0.3675980135465525
0.37217101062015767
0.37491376213746896
0.4021061210038841
0.40461459773619846
0.4390382581377413
0.42377140152990006
0.46665223060249483
0.4692145489641256
0.5147562834977313
0.5206981968742083
0.578505275351832
0.5872069636372312
0.6522025458241764
0.6574005039528952
0.7267167524037419
0.7430821271664996
0.7891015336901406
0.7835464639417079
0.8124467218032899
0.7793792487102651
0.7741716233867915
0.7405500323406908
0.6950832426264661
0.6566927794342031
0.6118419137086352
0.5750217979101646
0.5340731404007051
0.5140558746465053
0.47607495540219535
0.47744581890247273
0.4434908053619234
0.45499654465408534
0.42188171571572786
0.44791323975613223
0.4340647808477464
0.45054112861251283
0.43911262271454043
0.4686456910497164
0.4645986875019507
0.4899289125076722
0.4870994941173894
0.5191656959891175
0.5038366016894598
0.5284276471346155
0.5157088804402138
0.5206928105237119
0.5152808334846937
0.5193653635496671
0.5070831141207734
0.4931232167985118
0.495306747363888
0.4693353330688835
0.47454813691379955
0.4551934712032647
0.46357719273550285
0.4402017683070764
0.45661231890497617
0.43494970420081935
0.45169747426670764
0.42494587772746983
0.4415264577854314
0.4145746602974665
0.4387593999825965
0.4058806893340606
0.4321701618108681
0.4057088703621359
0.4164196464083442
0.4057178693806405
0.42061509744637277
0.40483525301830003
0.413265126351101
0.4117223224676406
0.4111982299461647
0.40713389329528643
0.4109446711098843
0.4092432340489854
0.40487707339837675
0.41118230563639263
0.4046663524477664
0.42095598167729725
0.39238838569667667
0.41699439127333726
0.40516522128429944
0.43115746036896835
0.41086381743414124
0.4394163677420918
0.41678628439906024
0.44309210678886124
0.42753214632910747
0.4474813180653758
0.44527592653786147
0.48759185850927905
0.49150946082291724
0.5400379605306715
0.5433834743627792
0.6018159773802889
0.6366943336570692
0.6123028739512331
0.5887006010374308
0.5690055266494428
0.531824392789762
0.491545504754637
0.5060431836898294
0.497287680816478
0.5229884143745707
0.5232003041896076
0.5653996226503939
0.6038835693482654
0.9628016047190598
1.0
1.0
1.0
0.6622611430020078
0.5276151755797076
0.5210728809420309
0.44447364036404524
0.4317087141786862
0.38212021662053497
0.3808399548810265
0.3589158035533009
0.36866977550295943
0.3551238526056504
0.35363526827490505
0.34983755833294
0.35174321595760744
0.36004956418675726
0.36560613409273734
0.38741351897802573
0.37628057368204393
0.40333584168948794
0.40164316636515063
0.447573991227529
0.43829027279926114
0.4834607360091372
0.4785016595856299
0.5342246437611877
0.5402257219455392
0.6048922149161484
0.6094870881954505
0.6701187635073894
0.6775422799756866
0.7325861628113352
0.738254682511581
0.7656769687683165
0.767493831074469
0.7674591937038572
0.7516287546276567
0.7365564697889272
0.6946214423300685
0.6561848100853007
0.6164536436178489
0.5737547066981841
0.5438626146259281
0.5035507906319333
0.4841043930900564
0.44247827229558767
0.44212144165640355
0.42179144264323176
0.4371287948811993
0.3997634140814864
0.4238465609804041
0.39569590097081253
0.42528607746063507
0.4132416172154307
0.4464514443621505
0.4257477968250143
0.44678702342322474
0.4264070530313793
0.4572550606159436
0.4511917921565467
0.4696518879599263
0.4679636129844333
0.4745693684950208
0.4703501111937071
0.4779860515773418
0.485227552570774
0.46866662064046505
0.4784474271790275
0.45038224219424106
0.4637503092880929
0.4331219667485618
0.44624974635001075
0.42837931786731565
0.44283917052231825
0.40744442499115296
0.42679871661532387
0.39415514503492255
0.4253032415978808
0.38838700171150764
0.4108624331388853
0.393563499656305
0.40747353541246706
0.3844622032338254
0.3970906579890575
0.37790630369786027
0.38812269300277125
0.3726391605746325
0.37736745904516517
0.3756513214626014
0.374838541629614
0.37282201990483965
0.3665897720123694
0.37627762517897645
0.3473231229286691
0.3808443867527793
0.35150619400713434
0.3701265066795159
0.3448001499073674
0.36606381740272403
0.3366102936325778
0.353950117258041
0.33075106853536357
0.3536004402926508
0.31927248002628933
0.33597990203284256
0.31217474042477955
0.3191222233399552
0.2918774298885799
0.29305748012242316
0.2748101918516197
0.29142506465184165
0.2797558447650504
0.2914072693033348
0.28996949092193847
0.29886738097475685
0.2938408122135165
0.307382235027973
0.33911807223841917
0.3455229660417303
0.3917043724333724
0.39408089312395395
0.47260063411123737
0.4795265008749152
0.47921337391203167
0.4435691496019647
0.4543190497098174
0.39608290465464513
0.41587311020305434
0.39489091307142166
0.43927338488284307
0.4285030278297223
0.48316204200859214
0.4903793200820137
0.5771224047726689
0.8502846811378934
1.0
1.0
1.0
0.8181685803049007
0.5055913171913154
0.5137073763934472
0.4548002971350334
0.4502755416624731
0.42020407322627706
0.4219387003513771
0.3969932361700105
0.41809204346026707
0.3887837322342159
0.4248480462458343
0.4029624413079544
0.44018498646637616
0.4137991256600323
0.4544607072597275
0.43899561088801786
0.48016814883238734
0.4656180972301328
0.5047444493785208
0.4995869703333679
0.5465051533495908
0.549781092134185
0.5892261160937421
0.5966926935469464
0.6259651270403216
0.6547605117242381
0.6850262404475514
0.72011755799242
0.7464103627623639
0.803758562389266
0.8141140601940313
0.8674397767473966
0.8678168618993121
0.8900662509071335
0.8710524529689238
0.8784000292126747
0.8202549982255526
0.8092222349160257
0.7550521586006798
0.7290903608419891
0.683224949214063
0.6562782178122533
0.614660454941242
0.6009265220396711
0.568800317796778
0.5586845162985966
0.5282374373018076
0.5342098437830588
0.5183550728009739
0.5170971978258634
0.5184139991460294
0.5107275479240722
0.5273031814876135
0.5177094224628978
0.5403158313553424
0.5420326238064368
0.5648512197860531
0.5548882366860647
0.5801761101909199
0.5576833411163519
0.5921638938418284
0.5719238718982576
0.6081340194548283
0.5736412226881886
0.6008548335756121
0.577490505104948
0.5851918101059935
0.55755493711275
0.5645681877370163
0.5451544764299026
0.5484803121882214
0.5180152131796345
0.5272308609635867
0.512615911980483
0.5093217672735976
0.5150781784714004
0.506548084247154
0.5093287080281412
0.4839184936514515
0.48995237411259024
0.48057244285877126
0.4889885876649521
0.45784453493815447
0.4841483691811585
0.4641575476394033
0.4839816311268633
0.456379709315699
0.4781853767952674
0.4584033748536567
0.4786786031059414
0.45248830637560866
0.47530670351401855
0.44792067023818427
0.47784007616581314
0.457957464964001
0.4750041451343031
0.4579900546237665
0.4723628881588627
0.46953754411289805
0.47815346691356775
0.49016526775988456
0.47854875550395803
0.48932932097732956
0.5174358792021269
0.5437305738053537
0.5608517420809834
0.6023172491483644
0.609922378669842
0.6412444133558467
0.595919158200358
0.5959079689920055
0.5442054781090385
0.5428682981772366
0.5034661154199751
0.5302646665584343
0.49777505040777525
0.5158479964530686
0.5236184610212221
0.5597491523878042
0.6236033401417856
1.0
1.0
1.0
1.0
0.7147631025781421
0.5489659188568148
0.5270199484305236
0.47055219768678225
0.4313096733729024
0.4064762447933325
0.3839556481163897
0.37154082978668435
0.36214130219565716
0.3716682216100328
0.3415428412918288
0.3666932538106319
0.34613938025600033
0.36681383765909
0.350503028816784
0.3721169523158046
0.3550530996993124
0.3798034364223006
0.3862958808116139
0.39839601540963243
0.4031055840581158
0.4352100181876997
0.43832404055752666
0.4639745117494193
0.48289122582406796
0.5135088543764633
0.5316097807237662
0.5714597610877157
0.6086671282198683
0.6168140274756999
0.6646225454329908
0.6611010315829088
0.6918045481591372
0.6667172696121264
0.6719155245015305
0.6333334522919895
0.6230688529195433
0.5611623537485205
0.5471351435274059
0.48324321182745955
0.47763074859739235
0.4164547301157492
0.4116973194769666
0.3740447273998499
0.37385824737077245
0.3514231645288425
0.3507326331026717
0.32931047441408595
0.3350094746658736
0.32777309916030195
0.33052364636464204
0.3363285041499392
0.33287791260665
0.33485096333445075
0.3276823947686479
0.3510077380067601
0.34998094740639446
0.3690589288738628
0.37125378792239455
0.3967757741696766
0.38140154657347913
0.4031441833297965
0.39672374153832574
0.41783251892666995
0.3991368551471537
0.4276850521570636
0.41451022867161524
0.43237585142108637
0.417462743403067
0.4243247203626356
0.41847274477544066
0.43092425779238697
0.4185218720122343
0.4255494125433879
0.41851816787277973
0.4175415363349666
0.42642943003423517
0.4188751948599525
0.4338655293033683
0.42286270595610287
0.43276226962190345
0.41237042652866424
0.42982787517812754
0.42038746533316873
0.4304094559467383
0.4040130606443705
0.4278665062483193
0.40160088011709866
0.4234580134861153
0.41495607206057733
0.43788488215503973
0.41007106665326437
0.44376513072239865
0.4234321418881744
0.44888768376300625
0.43094334953170454
0.4461000681733787
0.4439467753925844
0.4619406221669431
0.477078100523921
0.49306340377245406
0.5217174854472715
0.5437408576620675
0.5753668847922697
0.5979946176076496
0.6082332225289563
0.5767900726964788
0.573042603635251
0.5259539803803656
0.5268803178247767
0.4845758376338618
0.5194751546955818
0.4935443660843732
0.5417797621979902
0.5188661478497247
0.5856255158992731
0.7855305814414792
1.0
1.0
1.0
0.7902335277303918
0.4990594221070547
0.5093424788919748
0.4559505967016026
0.4442488031621415
0.41625077368451774
0.4153622381282761
0.3891497569136525
0.3907420828810424
0.3646297657386344
0.38807121912299536
0.36606344050941264
0.3918407091451715
0.3741896758806619
0.39739076711935334
0.37737211338230814
0.41510430927003095
0.3898517884680346
0.42969109510440856
0.42075777783507934
0.4635320748076029
0.4470305780177674
0.4893226112455495
0.4967457392148069
0.528768888293229
0.5384508591783667
0.5852333507075099
0.5924482150544366
0.6203125148382514
0.6501155772389573
0.6732920411729447
0.6884327152806571
0.6951177785009549
0.6935604945360844
0.6663639332743847
0.6646598169231233
0.6235357293432291
0.6131264745199134
0.5563030142132732
0.543655896295742
0.5091999664592373
0.5031668509589207
0.460298621057344
0.47269300134290093
0.4343431685122619
0.45254153167454003
0.42450934336602175
0.440475051280504
0.43654387993793653
0.43972755124748997
0.4341824043192514
0.4563974320090717
0.4595657069336328
0.4771723671570018
0.4770233649637978
0.48258201617778906
0.4958918516709354
0.49418745170455997
0.5051936973187672
0.5078708477114866
0.5235934277596491
0.5014146871382344
0.4975768511002654
0.4778509615687632
0.5124072949305266
0.4784296105354503
0.5039852977165441
0.47905018402296395
0.48751884553411956
0.45352994211980385
0.4750379924051564
0.4447621045298066
0.48560243116994073
0.44225099101681603
0.4583137713109259
0.4424984197934118
0.45192711769707233
0.44675171896544363
0.4521030710364437
0.44601988466428233
0.45313222302384987
0.44896541059475503
0.44484622709534244
0.4521866993587908
0.4474425295797982
0.46897841070744317
0.4573063482453459
0.47812923576918864
0.4638324131153556
0.49032592709642886
0.47534221642687446
0.5049186021733839
0.49786872827092293
0.5444412068301243
0.5401031643045535
0.5851138796506815
0.5851470213515666
0.6670428988351599
0.6392063390725908
0.6290154922781224
0.5999246860610467
0.5698763207088262
0.5410806982797395
0.53070799251736
0.5444604577219271
0.5488267928112072
0.57454306947894
0.5742521308532278
0.6313166010952604
0.8960809670817798
1.0
1.0
1.0
0.7625656605151242
0.5762090957907
0.5507985264718221
0.5277777831663859
0.4873246213845553
0.4649954847900831
0.43772546111994065
0.441235904687815
0.4164685391812058
0.43450267178679897
0.4107771121449909
0.42425010837848526
0.42003438181793235
0.42986903302539403
0.42607119422383316
0.44081644396652725
0.44539488789805387
0.45390085800143265
0.46201268640398274
0.4776051236675668
0.49865104887784223
0.5097058607290338
0.5430861539923152
0.5471462941491512
0.5808269447858966
0.5912305681970633
0.6362130648449698
0.6381607268100706
0.6868186503508378
0.6757597089689382
0.7143518846621586
0.6914023840536245
0.7044188725210044
0.6754622479653655
0.6725348132011784
0.6248102266512638
0.6069268736748207
0.5691045725429869
0.5505611097583885
0.5186430727157769
0.5122316694449095
0.4931383453193375
0.4718084133884396
0.4689082246625472
0.45201616382284354
0.4640580619502339
0.4463301983706174
0.4625411737346747
0.4612479667885651
0.48245699760620697
0.4699304883763764
0.5055643272217802
0.4880690594924011
0.5144085835471329
0.5045163090217699
0.5330528122376388
0.510344187088434
0.5341824180220129
0.5155326481972592
0.5389819294011324
0.511475789153556
0.5292285724746663
0.5065811720383927
0.5110357760836404
0.495710442185326
0.5042647343856552
0.48326197216463845
0.49264934489711154
0.4906687341508967
0.47772251151357786
0.4790464118205787
0.4661672134050475
0.47602827020789207
0.4560062590655173
0.473861407868413
0.4551275003073242
0.4695844638972434
0.4485803149035868
0.4732360464140912
0.44818213183163136
0.47345865156457795
0.45260715489271064
0.48192481507029133
0.4592333662120479
0.48264520176964654
0.47187695710641026
0.5015510532334011
0.5030744076989074
0.5393327811253188
0.552931639051936
0.5871205929446418
0.633773812240371
0.6659099064490726
0.6516055091874874
0.6024105710280138
0.5732147899326895
0.526573283295209
0.5308877035962145
0.4972525888600575
0.5284118759968188
0.5221002961515437
0.5615870271333776
0.580806550343623
0.9290829338249644
1.0
1.0
1.0
0.6434621281063483
0.516470464772254
0.5078536097772494
0.45570900878488824
0.43450799764243814
0.39226549082582207
0.3895729496437707
0.3679806714167591
0.3647778988871996
0.36356262807954653
0.3534908353301806
0.36555866039372564
0.3643259822648763
0.38251507479016905
0.3739075149663493
0.39008265757419147
0.3808103639114943
0.415769149719685
0.40826227419466027
0.44496674495075467
0.44502918524695706
0.4912297057044217
0.4724594734594688
0.5181899905039599
0.5091068924346001
0.5678183947540265
0.5741896475167731
0.6188455981525598
0.6307209786274848
0.6496763353455967
0.6449045787348346
0.6623856730669979
0.6457194153142284
0.6343425471008562
0.6054117383481892
0.5753241254673443
0.553462032800536
0.5169827425712283
0.5056121499082994
0.471791827981637
0.4670807186113656
0.4314825874321679
0.4481066727387324
0.4132048323268663
0.43511223947646593
0.4214222989828088
0.444668063898225
0.42285798118962636
0.4535065993229578
0.43273341822163686
0.4619722698395748
0.45170642692884133
0.4739714409826107
0.4677972762787362
0.4857232749102855
0.4759843981859994
0.4867112632213306
0.4761210125450527
0.4817470438705877
0.4758307954899693
0.47786465812347745
0.4681402276248699
0.45550858550795476
0.46618177360302343
0.45331931457332003
0.4574076103955975
0.4388720372170902
0.4458713330581562
0.42916044898138955
0.4389171843062403
0.39684943847389087
0.42867104982360454
0.41246303419762176
0.43029058841559015
0.40628554791148447
0.4386914457951412
0.4109694016715843
0.4346161271334085
0.40705239104458146
0.43087553133799866
0.42138352237145504
0.43327084674969163
0.41177285449230716
0.42281278530305544
0.43320450193122984
0.43952101800014187
0.4518599613579067
0.4566780309644229
0.49867058257985863
0.5095448724158734
0.5442138634715292
0.5800733331524475
0.6456698740637363
0.6371903165346399
0.6468232639824233
0.5803746481309779
0.5580919390095938
0.4962610590508715
0.5241144849244528
0.48956993509223334
0.5354389221339368
0.5196856177908762
0.5424101711723277
0.5932594749655411
0.9843263362117526
1.0
1.0
1.0
0.6179201341411582
0.5237921029615169
0.4950317833395851
0.46940501392763545
0.43115952693721304
0.4165380098898524
0.38326558509425335
0.3756362593531367
0.3648413706832955
0.3825730997898588
0.36164539633825105
