MLII
0.5
0.36510184810468094
0.4325509240523405
0.5268429921250923
0.5
0.5993736968522045
0.5764504442490254
0.47094516003637565
0.5674490759476595
0.5207318134668956
0.5888538483676549
0.45293679561926536
0.5761897989303449
0.5194219836975859
0.5917062441251394
0.4808712414315764
0.6141932322195508
0.5537820085443754
0.5674490759476595
0.5405034731752518
0.5674490759476595
0.5649643110378013
0.5165436694852913
0.6081906731395653
0.48095268195520663
0.6584223217287013
0.479522511180309
0.709558554320141
0.4480783391596594
0.7233226301323089
0.5971245341429466
0.696468470848966
0.5578087822948393
0.7569018792991111
0.632903975572001
0.74211777925879
0.6494483722282771
0.8872286285563534
0.8635002776170904
1.0
1.0
1.0
1.0
1.0
1.0
0.9015086847847164
0.796974990267959
0.7551052737577495
0.7878783061697707
0.7375221237120986
0.8021528803532719
0.7067810964055283
0.8067539331182785
0.7695115439082443
0.9094708666926554
0.5770781328314594
0.5
1.0
1.0
1.0
1.0
1.0
0.0
0.35377606745325546
0.2664524828875106
0.6279798529618863
0.7987578170926246
0.8579420523733206
0.8152388760118148
0.8744050167178609
0.8484195955532995
0.8451952175098143
0.787163759591964
0.8403390958933035
0.8046356856642797
0.8633932250782751
0.808324550265918
0.7980262469588828
0.7441264728165388
0.8053054759224938
0.7436306151357442
0.8019921547751947
0.7542052919141995
0.813033969091839
0.7811994217087993
0.8320802270901915
0.8069486957776342
0.8544122383368762
0.8319225586925668
0.8827910553929146
0.8804436102793403
0.9393408093813462
0.9559309906497712
1.0
1.0
1.0
1.0
1.0
1.0
1.0
1.0
1.0
1.0
1.0
1.0
1.0
1.0
0.9086675242463901
0.7922681045095537
0.6744843818895083
0.6062276547874648
0.5336973585740501
0.5132871607175329
0.48348392917522104
0.47245387885428647
0.4491031799208499
0.44591612589184493
0.4377460572241179
0.4379700783043615
0.4408237722412805
0.43894964121871227
0.447136158531867
0.4355771391546403
0.44813465075992676
0.4295687495994752
0.4528021178561126
0.4320740943148881
0.46776627136507587
0.4377418364352673
0.4568932737323864
0.43813312692681927
0.4573530257703295
0.4275962370701031
0.45639667005097956
0.4257426269157051
0.44226926718574333
0.4064435208814687
0.43832436768741073
0.40704585834764107
0.43227489525138296
0.40523666624476185
0.42141506181143507
0.41180225050864483
0.42531570182069406
0.40660936880733345
0.4229576117260524
0.43103435355979525
0.43511504672006324
0.43909466555001436
0.43576081307844
0.4339934161245931
0.4354706080168535
0.44063618971786117
0.43267626240475254
0.442971576592922
0.4339065030911353
0.4478386834956856
0.4276658161864525
0.4478555063442754
0.4429531357095361
0.4701169988191805
0.4557492336242789
0.471378049197694
0.4605519901585695
0.4689545757566812
0.46075010456503807
0.4644136595371647
0.46287289172745416
0.46747184562413546
0.4656090250782533
0.4726896021922419
0.475873689209161
0.4748905767809183
0.48147051453806355
0.4744707579750343
0.5021165929191842
0.4784797894619214
0.4997657633764404
0.4788008450762679
0.5074055423910557
0.48805344036065196
0.5445283641512035
0.5401261936498883
0.5802098851189272
0.571811125937747
0.6012699239861093
0.5566196662921923
0.5878585063701334
0.5289688022898454
0.5355183820903162
0.5082475136315614
0.5363291516424189
0.5192931715111846
0.5417065076052325
0.5283707354275295
0.5585191798338045
0.5566317194504261
0.5820859812894227
0.5191953263201612
0.46247135392355954
0.6452397651312898
1.0
1.0
1.0
0.9316113161659366
0.2751527104037562
0.46720246683325745
0.3909336436546231
0.593312223380183
0.6057127951333154
0.6573608699160701
0.6109907024248612
0.6587104424082344
0.637997892840034
0.6750065702371673
0.6522476282535653
0.670894902537263
0.6647866274306335
0.6934146728683734
0.6909361697481046
0.7159599143968693
0.7105561466114498
0.7134944499350686
0.7256134769407323
0.7221298982894588
0.7434003395703657
0.7587302859789992
0.79354026092255
0.7989985017898833
0.8393198259838293
0.8404879948294326
0.8866167189645211
0.9093328150123311
0.9747132489824297
0.9922815075984437
1.0
1.0
1.0
1.0
1.0
1.0
1.0
1.0
1.0
1.0
1.0
1.0
1.0
1.0
0.8594937557722686
0.7493531762133662
0.6643071891794146
0.6286066034432402
0.5785337082354313
0.5709670868608379
0.5416630614516887
0.5568862628036678
0.5202366941127924
0.5508477438596194
0.5292001145030911
0.547765132066817
0.5281499816091874
0.5479353716235205
0.5277440716780852
0.5491364442779225
0.5309798051457343
0.5564377225984425
0.5366503334457247
0.5507493942200063
0.5380074411591627
0.5406273836143675
0.5390136973275547
0.542644438604843
0.5314422360261184
0.5223939283557001
0.5383222028863431
0.512673905685544
0.5297177146951453
0.5138416191929113
0.5319516255582941
0.5042021755075865
0.5226626485399677
0.5047316860809188
0.5233854175870056
0.5073144499575202
0.5174983450355236
0.5110725023596476
0.5330260842038841
0.5183258997180922
0.5303472089705935
0.5137411163425509
0.5345588755764489
0.5261105131249744
0.5307035340782211
0.5371510260177244
0.540943348660887
0.5302827545864524
0.5319987587561255
0.5473326917056622
0.5307328574518972
0.5534656177454542
0.535487485612134
0.5559601494616047
0.5350550440290364
0.5684793966389655
0.5399163161144123
0.5779017428704792
0.5369351222026683
0.5771071225393238
0.5404117532611773
0.5780870171453011
0.5610944420898039
0.5815915485292558
0.5575264456468851
0.5872435579517064
0.5706862720437195
0.6073257572169916
0.6137506995510245
0.6316402228126303
0.642015222305146
0.6595533151820974
0.6475289846498746
0.646019921456358
0.6029217432280944
0.5966418080102679
0.5894452335202054
0.5902676173005471
0.6002963564486323
0.5924405563959587
0.6017756386031838
0.6216054705680538
0.625090090145624
0.5391080689231449
0.5154883255061976
1.0
1.0
1.0
1.0
0.2995153660791494
0.5234324547190672
0.4328890239995715
0.6470268805921742
0.6492625962932147
0.6987843499894151
0.6653928695307694
0.7026072052377033
0.6874272560118537
0.7215855881760271
0.7088633459251754
0.7318554797064996
0.7185598776391122
0.735287988425146
0.7372508226268257
0.7603224652120867
0.7595971273432147
0.7800527841794042
0.793592929627305
0.7903797263059499
0.8038553827637633
0.8167490002894828
0.8401722459777922
0.8487674344688564
0.89079474627268
0.8976601889875878
0.9495234976408987
0.966649238393598
1.0
1.0
1.0
1.0
1.0
1.0
1.0
1.0
1.0
1.0
1.0
1.0
1.0
1.0
1.0
0.9848922953439786
0.8418673680383322
0.7550061218057518
0.6683579099169868
0.6320055160584225
0.5739139682428833
0.5663790642902525
0.5235911712730289
0.5407614379554692
0.5137514854426193
0.5354376845075699
0.5069163163246528
0.5331965504581319
0.5129761960777299
0.529661775244534
0.5056605452194963
0.5194634090502239
0.5066122297676751
0.5284007258347412
0.5113162784224319
0.5205691483064561
0.510740198125318
0.5178432905469466
0.5115555056340482
0.5107314480534927
0.5022443454331518
0.4996081349981892
0.4957901771175085
0.47889931285611553
0.4846171661866574
0.47134505670756266
0.47815183071002554
0.46600201761434673
0.4676418937382471
0.4426147356452522
0.4489100586004066
0.4316697303548505
0.4523699585766394
0.4394123748108253
0.44030416064345007
0.43414371418248016
0.4540064536761911
0.43207949315276295
0.4309664541177859
0.43621074671126275
0.42454656340916797
0.4319001569401082
0.4268881972777884
0.4265907960334892
0.4184114194610258
0.4307314118407154
0.4188300676882958
0.4326974080481737
0.4139700522786637
0.4308574014267741
0.40050741504228143
0.4317871817924964
0.4010919285088623
0.43525605067185513
0.4102222248754296
0.46888050655474983
0.44828403883252604
0.4926507677573535
0.47491938256687394
0.4845062201482019
0.4471698812812443
0.44052882694390477
0.3752843275787202
0.39614817848512784
0.3740359736497713
0.4019974916520086
0.38564529861387
0.403029693110307
0.39058909731046126
0.4255150411859156
0.3794617855295135
0.3290964064048293
0.3318188508280682
0.988602179397191
1.0
1.0
1.0
0.10130413408936775
0.27357137933324555
0.1957217682960021
0.3796827983007258
0.3932941372851077
0.4363241617977211
0.3931965953763328
0.43006295792212035
0.4024352077729863
0.4358224894869237
0.40759478359092577
0.42987587586283044
0.41962156024216996
0.4437729149576911
0.4304748498134653
0.4510978784331018
0.44657476547540914
0.4608366157234414
0.4550067148259167
0.46330666482125593
0.4782317807073458
0.4821316977711366
0.5072318586719323
0.5103209775490206
0.544070148550699
0.5534392203665596
0.5962642698729539
0.6060467419255865
0.6573841003144396
0.6830139471016653
0.751291079164696
0.7869644537914663
0.8678575852351539
0.9078599752546065
0.9808118954233365
1.0
1.0
1.0
1.0
1.0
1.0
1.0
1.0
0.8859124787995345
0.716035823218759
0.5813311740680358
0.4427080921568254
0.3803882680796269
0.2956590092377577
0.28381513220140964
0.22783983735606497
0.23078888067469633
0.19743476591244669
0.21193761609302902
0.17803298996814357
0.19480482364775123
0.16619829271190162
0.1861453194649172
0.16798996167507055
0.20041120138105298
0.1869228683297187
0.19837567820335708
0.1786548898644035
0.18796894678287232
0.1837839027328591
0.19035926939119627
0.18973768867512933
0.1754554911675065
0.17766651323298746
0.16662370630383908
0.17654473179403687
0.16621505622910737
0.17208240479079642
0.15423241380676514
0.1641158442766332
0.1556763522559681
0.16513663675714318
0.14477917373426802
0.16124206425844534
0.13698994305008672
0.15294037241356745
0.13646305924826016
0.1689825443688727
0.15790535728748117
0.17406806320607338
0.15949092028885983
0.16731107037349152
0.16521761796972706
0.17028915218813384
0.17100395132692886
0.17052027765020972
0.17322853106333094
0.17040016512774595
0.1779493923987055
0.17500690916723372
0.18556804495093035
0.1811703945093636
0.18990275024730482
0.1835253396098858
0.2082482775451763
0.18961323255855006
0.20885975037518797
0.18878776889687407
0.21175392170789453
0.19617226846545283
0.22465924704775006
0.20122945562728764
0.22666466996564574
0.21640480151053287
0.24296667974531658
0.2466707506072774
0.27874334374834103
0.27449795791887543
0.2922310454289293
0.28165531404153005
0.2820029788991575
0.2452467967335326
0.2494934427511704
0.24689317083160983
0.2577266380978882
0.24929420066406602
0.2621260183871531
0.2684443953222497
0.2831057364390886
0.2742796241266139
0.2314536025267917
0.21824149777847607
0.5875346712370764
1.0
1.0
0.8699274807232644
0.08385739581254432
0.2164827041434449
0.16480703958180037
0.2844576821914836
0.2911681362248776
0.32426864480146833
0.3064819315001334
0.33820223733127686
0.32211016602923764
0.3445640938028686
0.3328687572812821
0.3550496625971503
0.3542397732328304
0.3639036470324427
0.3680231759245042
0.370210468234538
0.38839386291150835
0.394795030179674
0.415134551367723
0.42306362223006655
0.44930976746543616
0.4605751563503683
0.493398380936738
0.5092895723821625
0.5525429349772898
0.5885879227249824
0.6427107162327068
0.6760608802459416
0.7396865224821942
0.7840248104124817
0.8431929546692221
0.8789183807807927
0.928842234992571
0.9691326441077143
0.991453282940703
0.982863085411671
0.9267578818617807
0.8389430016822313
0.7214766747192947
0.619415161293318
0.5076358426783897
0.44252726837539313
0.37033343660182333
0.3527668139861308
0.315045483042882
0.3165257085002753
0.28966787646518716
0.3023236424413292
0.28215510247586806
0.297994318708774
0.27709709365276025
0.29903803796528733
0.2884811965727261
0.3052263433330136
0.2972937825529879
0.31300831149115677
0.30433312185675115
0.319115226896521
0.31083245903428863
0.3175206571742998
0.3203087913547199
0.31731328676972614
0.32359810815917156
0.31797495811901433
0.32972508476479273
0.32517941333118905
0.3336905800305928
0.3217858187442849
0.33565276667151
0.3255377833357855
0.33751892283887386
0.32197861773077624
0.3372853200299667
0.32868419950350436
0.33616974879770056
0.328733824405938
0.34622717680781445
0.3354601971912065
0.34616262809369786
0.34142073529727146
0.35378948926194687
0.3420949619956313
0.3561813703339464
0.35089374430089115
0.3537052554320325
0.3566058225462834
0.3628673072287948
0.3636481091893959
0.35980587882254705
0.373250953849039
0.36786080856439557
0.3739048626869223
0.3698717167931189
0.38010531444261986
0.37053850139376154
0.38472881656345514
0.3781920877947551
0.38786267734556895
0.375511809477975
0.3972809092367832
0.38492669423225684
0.3987590072840181
0.389169838390753
0.40088622482495034
0.39017654738624896
0.40434887193649605
0.3982309166546796
0.40621114306041806
0.40413013131158637
0.41247559929331573
0.4125722178684387
0.4225528864376133
0.4293271570007107
0.44414996364702564
0.44988362967437484
0.45413303613149425
0.4568303711026297
0.446019512905549
0.45046793522377265
0.42981653003302067
0.4325509240523405
0.4241662611709941
0.43871246444462014
0.42786631744846754
0.4415895568950018
0.43307373233229834
0.45134681901360657
0.44646741177227567
0.446421357040162
0.4048086035330064
0.41705995224855197
0.6262416648874058
1.0
1.0
1.0
0.4445325423401876
0.35485912276860854
0.3920718842079876
0.39301041443319507
0.46318464674498266
0.4757599771996718
0.4825904940844044
0.48012950507459706
0.49351345892350074
0.4883850259674688
0.5005365523065444
0.4934602192807285
0.5096474446184728
0.500605041457686
0.5198065563351951
0.5079300436473637
0.5231373979969648
0.5128009982919483
0.5317924934601551
0.5246111961221402
0.5439188274897269
0.5395166559583875
0.5513801448283533
0.5547421416681322
0.5664108423052239
0.5709011712326232
0.5812281157964111
0.59852423246509
0.6099517548029347
0.6301510379690644
0.6410171474212062
0.6713541347237946
0.686985601831376
0.7282163593131713
0.7507226022173873
0.802088019731697
0.81347583951103
0.8600968445026073
0.8844861731266824
0.9330965216607925
0.9477814059738158
0.9839348590617419
0.9730955414016517
0.9542543493902272
0.8936701999269665
0.8329648166164076
0.7513392218205809
0.6764923968191436
0.6048626173721416
0.5510698871697194
0.513016061589621
0.48665532348948404
0.46933476177686034
0.4589877244454533
0.4538926892025145
0.43918539328672057
0.44336631395621096
0.4381452830757846
0.44527571475916794
0.4339520019412211
0.4454688736088984
0.4355286752168984
0.44760420177953264
0.43965710782623235
0.45164532188055506
0.44070153160370085
0.4542705579997543
0.4415907172935887
0.45557423210785464
0.44512037470268584
0.4534015632221588
0.4454205984332698
0.45012256568989245
0.44461735503926736
0.4458491518461395
0.44140298153656143
0.44265408984539356
0.44256161829790797
0.43318400224190723
0.44479790131294994
0.43398025108360205
0.4415738368622514
0.4302426202167785
0.44070103702485913
0.43754029320835564
0.4462953332532412
0.432490725511178
0.44867914243295964
0.4375927404898694
0.4475824380441944
0.43665045381831613
0.45410190768505904
0.44229809764172756
0.4541546781272389
0.43870219075699
0.45267184493604146
0.44170938535202486
0.4553455292541191
0.45190082236466134
0.451808669023829
0.4570831942632806
0.4552259356081804
0.45362043247559686
0.4577016697857689
0.46156045149054636
0.4582968491100132
0.47345320105134114
0.45648158311918713
0.4739051500918001
0.45930338926052927
0.47823893225566644
0.4639999331157429
0.47824789524972183
0.4716578721229653
0.48491123811087233
0.47407654870952853
0.47989064879550875
0.4716632668287608
0.4824777004068957
0.47971737124023034
0.4992671228634314
0.49909904382189724
0.5199289963894249
0.5126302933411225
0.5226002516599677
0.5307618255868857
0.5229528274729367
0.5272968049065703
0.5056151545609698
0.5070617621153529
0.4876718323671244
0.5054389336886799
0.49153003923141636
0.5084106644129245
0.48889052139017386
0.5165329453422476
0.504852756213274
0.5315861449559416
0.4980596320089849
0.4850844174047032
0.45019014853229544
0.7684599420853138
1.0
1.0
1.0
0.3903174220288927
0.4251427880312166
0.41925878698510405
0.4461866358281861
0.5033509905962542
0.5528662740724961
0.542702345715396
0.5614605309289435
0.5582883148186426
0.572034702647373
0.566605214245131
0.586420380471437
0.5773210570804347
0.5951781144516622
0.582122922077953
0.606538110740911
0.5929334620463514
0.6165948535887223
0.6032355937538398
0.6168723082766121
0.6090310986223615
0.6367712004987188
0.6260914695027437
0.6515799670317481
0.6487309026335832
0.6773251554855139
0.6823400295556029
0.7064506812496809
0.710927242581605
0.7461027478664471
0.7645341715344329
0.8024070143191306
0.8309219750432089
0.867468929881617
0.9120955408231005
0.9500229827123888
0.9939901830599818
1.0
1.0
1.0
1.0
1.0
1.0
1.0
0.9324450245661641
0.8230689854401889
0.7424214625921183
0.6552147038854221
0.6138881017965829
0.5672724487982831
0.5510269917635899
0.5339765732555151
0.5287261141605802
0.5183211323208425
0.5157516308295675
0.5158669489142279
0.5094880557614082
0.516168427007036
0.5073032643654365
0.5196007956053095
0.513666169859108
0.5221980089498354
0.514150890148887
0.5230852409095137
0.5169500378058434
0.5293308118906066
0.5165569497730684
0.5339322894028091
0.5188611597471675
0.532209963603618
0.5192753648984307
0.5265172711146217
0.5069888178641656
0.5223590333145719
0.5133595362222351
0.5193507310370306
0.5080059976706466
0.5115925768504048
0.5091880786998944
0.5068684299187975
0.507930282608151
0.5090478052340404
0.5092415185325861
0.5109362305293251
0.5112650223717481
0.4990364688221168
0.511370243294073
0.5089331128227343
0.5150315991090761
0.4994013163230366
0.5111927989494838
0.49967807247800844
0.5148096890058024
0.5087437140046079
0.5212745587202305
0.5115796211999559
0.5226745666555179
0.5057358145927129
0.5236192298706606
0.5154018746269404
0.5243432983705454
0.5210793760857871
0.5465858753987263
0.5479900089395807
0.5614541644077263
0.5614662538337862
0.5797736212354994
0.5728674846259556
0.5657242773235162
0.5504633304888978
0.532456293524801
0.5293300924076523
0.5186633491674602
0.5310527627921255
0.5218409896757598
0.5341512945917164
0.5284077067362954
0.5421898374331183
0.548401487413291
0.5336637683994727
0.48013062487718516
0.5201499772459869
1.0
1.0
1.0
0.7206505556683711
0.3848955236039405
0.4794539795463838
0.45598430245444355
0.5628300762489328
0.5472992249815781
0.5724347784998967
0.564994955510407
0.5833500023888479
0.5768778964012482
0.5863300165223355
0.5876754427423119
0.5905901396335327
0.6019644619970429
0.5981957035648029
0.6070669246687498
0.6095520332817858
0.6217323342391741
0.6183454370340142
0.6421422028096125
0.6460122872325538
0.6641935524493767
0.6726401475377549
0.693244803806795
0.7126459449227655
0.7393250556679394
0.7661299959796091
0.8010848227982745
0.8295769359882446
0.8684325413712397
0.9197755768456262
0.9671003427437501
1.0
1.0
1.0
1.0
1.0
1.0
1.0
1.0
0.9165154094421133
0.7991277572379326
0.7212141896849872
0.6346975004749674
0.5973669468467916
0.5468390198177465
0.5437569405502838
0.5095998185657835
0.5085023763307224
0.48985226417897054
0.4979576381045412
0.4874450983840508
0.4963937151977123
0.4889494260401846
0.4905489288663259
0.4866143097939305
0.4924357121809181
0.4937778356507304
0.4925382248912541
0.49525457510842064
0.49740587911052464
0.4961707526910236
0.48758763829655793
0.5003681394246415
0.48921072109566277
0.4974772094706565
0.48435720479491173
0.49048867665043205
0.483868740979153
0.4864004015084575
0.4682459552676147
0.4801589766814473
0.46537877213684364
0.47875785472521903
0.4592953574444807
0.47143441371331046
0.4639205973738452
0.4628693072541008
0.4641578096345314
0.46105572320199995
0.464865850584218
0.4604932079416358
0.4639381769636909
0.4535521805296277
0.45991305284346123
0.45045566907204215
0.45962793908213023
0.44248761262964037
0.4568994355219623
0.4364018043246481
0.45892232415490125
0.4436657883145408
0.4621149752373691
0.4459632557944043
0.46085678975882455
0.43793685605727595
0.4523883320467024
0.43530786075228434
0.4515613839711389
0.4354085175376679
0.4519562220122865
0.43298237329507516
0.4524309395110504
0.4406163124992778
0.44710797274394415
0.4439386854065899
0.43962363473013594
0.4381729631939195
0.4380086529596456
0.43614280037152114
0.4481251278982731
0.46521567352011156
0.46216755066997556
0.47970696805472446
0.4766601078285104
0.47780331371527673
0.46395310444196947
0.4518672529142454
0.43180506225888937
0.43862004303809315
0.43153246863222944
0.44465641308939274
0.4346538427800284
0.44282909937164827
0.4459308047328242
0.4512009610554455
0.41959889063013145
0.3687317363228331
0.6533315801032725
1.0
1.0
1.0
0.30531899264897777
0.33957462346081874
0.340895313849465
0.39660337638347165
0.44763185157390284
0.44377151869219456
0.4527568262247607
0.44546380445644057
0.4600506967867539
0.45396968310458635
0.46626592296275177
0.45752976057261874
0.4726418793511737
0.4587202591372289
0.48132964300274805
0.47179689791194585
0.48798057290018926
0.47511511655018995
0.49374154560736416
0.49649323429174047
0.5129408075289024
0.5105060489715234
0.5257713298520001
0.5310573628932086
0.5532803996507973
0.5605179180595377
0.579108880555396
0.606133058608517
0.6265128411907581
0.6580996940886016
0.6844424269430296
0.7370293345768133
0.7680307978070375
0.8310904203699133
0.8656998271176854
0.9263089584424922
0.9638740537004106
1.0
1.0
1.0
1.0
0.9658266179852479
0.8470261649850421
0.7496148967934616
0.6354623097105367
0.550384788412838
0.4826390476894389
0.44127857150215377
0.4161270079276892
0.40160422823841646
0.3922293740384506
0.37740216386361364
0.37869491691334384
0.37235354152022265
0.3773382400606663
0.3646221678797931
0.3746767281992639
0.3672543454129349
0.376663220741313
0.36602360553334934
0.3829231582792331
0.3662737594838671
0.38940808746691447
0.368745635445727
0.3895839069648814
0.3748166225315127
0.38548304450676724
0.3791261194780738
0.38284572646976595
0.3713757668124812
0.3822653601778373
0.3705357011789446
0.380318489965439
0.3696804208666209
0.37277146357614593
0.3700701765083993
0.369587785364355
0.37028659059999564
0.36275692665003784
0.37354074519681363
0.36579197586319817
0.3753794945232166
0.3679891383284819
0.38107847344211543
0.3731683930233384
0.3844299747290082
0.37283075030318297
0.3855073812743966
0.3734342447814756
0.37653072064690774
0.3727558084809758
0.38431688344067866
0.3778831870605397
0.3882787371834226
0.3782652393881326
0.3892169095552739
0.3838635294952423
0.39080044474548137
0.39217820111480944
0.39292926110030235
0.3955095356588518
0.39395401706741306
0.3997744402934075
0.39913077261249474
0.4113446736142972
0.39694505161307975
0.41663456700457485
0.4001130583238033
0.4188317657293027
0.4062596154559661
0.4229664907640678
0.41348540411957685
0.42377719433030514
0.408888357334959
0.4390752752862361
0.43016333608390156
0.4613505294091178
0.44995722200605287
0.46993100598197624
0.46255193878919265
0.47274883573868437
0.46648089632264195
0.4578627687014591
0.44264643143675275
0.45114636245184514
0.4436859080698574
0.44923376433734996
0.45297590293708706
0.45829668519830813
0.46794681619819006
0.4703038550206977
0.4425248273128132
0.40282018857893565
0.573199909161144
1.0
1.0
1.0
0.5324573265175575
0.3398722664633037
0.408367129632103
0.3971792383607897
0.4915671264975471
0.48751383786102104
0.5117195129024384
0.5035954683106294
0.5169923191194048
0.5112422922522294
0.5228095494230296
0.5192736771453685
0.5266695689004219
0.5337029414417134
0.5330177878969293
0.5381331805156203
0.5396994556510748
0.5560297901882902
0.5500160941465417
0.5631924796661499
0.5668868288481488
0.5818530938268467
0.5793895248435043
0.6021314215035807
0.5975932864295561
0.6275056937716664
0.6229778163499615
0.652010213716008
0.6556945318765979
0.6888446680107192
0.6980938655500186
0.7358470984478054
0.757662807852763
0.7938308245478576
0.8253850704595266
0.8749073356481677
0.9146942828430145
0.958652697659225
0.9999955398335715
1.0
1.0
1.0
1.0
0.9360201977752431
0.8553296021835164
0.7597402670936122
0.6785118290689951
0.6013068947813733
0.5706256590460118
0.5272958765856943
0.5159229087223977
0.4911502394730268
0.4986485577431557
0.4805160102573362
0.48710467354372583
0.4751279045852675
0.47999888315535716
0.476932399945892
0.48425900560509927
0.4811475804258506
0.4805206877609596
0.4819962570349444
0.48791378217728704
0.48468113971664356
0.48826200271991327
0.4945622330114454
0.48437097143684715
0.49335319851699755
0.48823431408867196
0.4929530004183437
0.48302440783001294
0.4942984648320696
0.48328164443634786
0.49415913517919474
0.47003578951133707
0.48870654083057286
0.4801310220061013
0.49232510660164663
0.48007927983864584
0.5007286855082045
0.48313730206486233
0.4975312539609901
0.4824452237995122
0.49194607723056283
0.48235754711558465
0.4950462777162915
0.4893030300580893
0.4968471124815248
0.49373618312223816
0.49939759686813
0.5001568972920896
0.5044954850681684
0.5048214053939241
0.5020684416233105
0.5061698566512894
0.5054428486472599
0.5163433847695232
0.5065619602961193
0.5173308481957319
0.5095712730547395
0.5257037153756741
0.5116539022796431
0.5223002597647993
0.5178932345569198
0.536356237181884
0.5350818021404847
0.5521573593126333
0.5578595060537285
0.5649509194779746
0.5780678909689223
0.572132744860684
0.5688294512522709
0.5572406974367619
0.5500402990474034
0.5317929114053705
0.5467070668385514
0.5390383605507221
0.5530783598983173
0.5360989476607394
0.5620353712378915
0.5458036956070957
0.5818007941796711
0.5224602407437924
0.5167369062151349
0.532734737345604
1.0
1.0
1.0
0.9114323182092511
0.3948653267484522
0.4988424895638145
0.46044751155876484
0.5246116515925208
0.5701019919889058
0.5937290178332024
0.5838545017354596
0.6004061808316365
0.5994295741491659
0.6137223530535867
0.6056238976591498
0.6199580391490592
0.6053410591324744
0.6247140637746179
0.6156434511723095
0.6373530719744767
0.622528670596444
0.6411189134576603
0.6299053521272032
0.6570533469122019
0.6421815486159945
0.6677654391964118
0.6545147008011566
0.6791660063864513
0.6737766500261427
0.7017110961212947
0.7006094211650331
0.7286486732310811
0.7300885555110079
0.7524546754001479
0.7623225170144126
0.7926844829158486
0.8172181248650878
0.8583146814301044
0.8923768897926763
0.9292964118666841
0.9687548919627791
1.0
1.0
1.0
1.0
1.0
1.0
1.0
0.964676818914523
0.871145356889301
0.791562726011034
0.6991691494875092
0.6501355675395015
0.5977038060130705
0.5752575136679503
0.5439111654998756
0.5431396797114761
0.5273961552929742
0.5304416255209903
0.5188343028357035
0.5217721669987078
0.5149135256488817
0.5151531597585166
0.513811095831749
0.5139313831924357
0.5207699166796458
0.5129496694944972
0.5237006653884598
0.5186644418739479
0.522411851307022
0.517256587501892
0.5240876318601979
0.5143687937248682
0.5259103451060447
0.509175753870977
0.5229074689286068
0.5013806968131662
0.5163891079673144
0.5027557288616807
0.5066594634346282
0.4987138317513343
0.5061721363259677
0.4962971159467431
0.5032991294352401
0.4896780165738502
0.49872140109031415
0.4949974481761492
0.4944538049017117
0.493790284753726
0.4941294877607049
0.4941759201204424
0.4912722263526767
0.49351092249897277
0.4881386662317168
0.49755828604023805
0.5014714702659793
0.5306891801495242
0.5199719923793052
0.5463448072611455
0.5509968609598217
0.5615529199487515
0.5204712073829784
0.533263517676633
0.5121579845586615
0.5035660308230989
0.48708969051790596
0.5014403100419551
0.4901296225986447
0.5056513393977854
0.49231819118486264
0.507122140106854
0.502093398486796
0.5177972055893477
0.496311733540599
0.4552865450776743
0.4591649580375806
0.8180291021709569
1.0
1.0
1.0
0.428104418173972
0.39455363879720345
0.400512826561792
0.43152582849237
0.4811920588134947
0.5256290993724753
0.5050110343313347
0.5255387995852708
0.5183612912695438
0.5369130599382967
0.5203793055882421
0.5393286631541324
0.5248349364478233
0.5494860432594535
0.5414243578954542
0.5498692221604061
0.5491449298459562
0.5561892336334402
0.5640510913687475
0.5711564777215095
0.5790731058506863
0.5818112090833536
0.5952900154544849
0.6011923941091976
0.617983544523012
0.6132614998989635
0.6386493609040077
0.6440222772161012
0.6701111716474124
0.6797780019592449
0.7051102684758096
0.7227850820855519
0.7631443526791832
0.7851944830004648
0.8354885384302214
0.8671774051088654
0.9134497619757587
0.9595368021244713
1.0
1.0
1.0
1.0
1.0
1.0
0.9176838580553823
0.8230766484851417
0.7164013275783168
0.6482751797975475
0.5799478400893898
0.5476152938872307
0.507433381930593
0.5036510631323886
0.4785834780435202
0.48491160471690015
0.46834689830274545
0.4771465442326357
0.46464020276813545
0.4799037414885552
0.4688267400438078
0.4785472955827669
0.47216851405218996
0.48274957883505926
0.47507514770515114
0.4864261693598646
0.4737528814776074
0.48644851167434044
0.48245320187950325
0.48889964648336026
0.4833081934762228
0.4846422321353637
0.47958084555530406
0.47600682294354746
0.47655900733088324
0.4733565013635598
0.47606974543703284
0.4701740824434289
0.47865435524871885
0.4641338006275067
0.4796970954708568
0.45979838885565727
0.47285499100858647
0.4693698876688576
0.47257937975606845
0.4574103161698709
0.47115653109547184
0.4626536167440764
0.46878476442118255
0.4667939518151648
0.47226342868492405
0.4732469548674591
0.47386854683878454
0.4712134774568234
0.464574432199771
0.4719230647330253
0.4742395770079592
0.4765715835183156
0.47970598820498145
0.5081552967819053
0.5059405061741267
0.5202075066498018
0.5275822730174204
0.547928265170665
0.5306733346887643
0.5288653926058717
0.49894268448433454
0.4979414044681967
0.47377881101547403
0.48679511150181504
0.47332058637288477
0.49595430051072437
0.48026765317803904
0.5029076647912701
0.48671123649232245
0.5229634375839881
0.49520903251095216
0.47820642667758834
0.4472229589253084
0.7549752265465345
1.0
1.0
1.0
0.3666851220616779
0.4341746969855659
0.41248445114142107
0.5016606797331338
0.528813795633117
0.5512176007051335
0.5314506557431503
0.5564243040839008
0.5454844983303268
0.56557128559186
0.5574532413685902
0.5725855762426926
0.5566103604135746
0.5776768690313215
0.5675865456660294
0.5851396840357624
0.5795108288284668
0.5955921375882266
0.5927977673450483
0.6067296898612082
0.6062526645166371
0.6211265630213625
0.6263571871544908
0.6351652607293301
0.6506203167580352
0.66151032885968
0.685156860345705
0.6970696867726306
0.726410560520703
0.7353059384110172
0.7704035485889852
0.78923844493208
0.836480894536702
0.8603753712100601
0.9180417393130954
0.9473014611176451
1.0
1.0
1.0
1.0
1.0
1.0
1.0
0.9758392293450271
0.8863780055823607
0.7854640040118117
0.7025781699328192
0.6373866460817441
0.589981484675794
0.5570472595236907
0.5295562707418631
0.5192611606926292
0.5043414547373493
0.505449740037624
0.4925478589324516
0.4988645158059568
0.48508024551913265
0.5002072617332313
0.4906908893312534
0.5024297089603247
0.4941124120826966
0.5079620341520468
0.5006976824703264
0.5098716772304414
0.49482740658740976
0.5059643122162412
0.49900267463858394
0.5094915511008798
0.499566142724328
0.5074712130762296
0.5040932593875731
0.5021480238319103
0.4981032751897486
0.49078782139972355
0.49607012199797584
0.48729589071518714
0.4932520589485672
0.48905052099367
0.48730896531148316
0.4810704099346079
0.49633201515150505
0.48091414293099677
0.49464834870918206
0.47613190577532094
0.4909419549264854
0.4794575957892449
0.4844266354254502
0.47990558282710855
0.4867224241864683
0.4756631396950882
0.4915772854389158
0.4797087589442306
0.4891978574124794
0.4840509009322586
0.4904964372979178
0.4811465732121899
0.4884378356236905
0.48943639924845544
0.4878485874382531
0.48849388328967835
0.49044383661453095
0.49173109718395674
0.4828296595354156
0.49073155909070215
0.49047447073289085
0.493817873868455
0.4817249915304663
0.5014852526449605
0.4937765352837678
0.5069890265846771
0.49776391456656216
0.5157982504762171
0.5202294249518638
0.5423052314831944
0.5356742199931999
0.5562146129945209
0.5347690285887015
0.5447074500044484
0.5282155885603143
0.5153655623415181
0.5108251471327835
0.506914041736228
0.5161931971276869
0.5089152554427969
0.5224798976188193
0.5115946166469196
0.5379233256501998
0.5222983142202079
0.5056054966296699
0.45798947317684124
0.8764824446222865
1.0
1.0
0.8137999736602447
0.37584395253722763
0.463916342246538
0.4498690519615895
0.5419547767931853
0.55121616730911
0.5512860828604198
0.5550890711711625
0.5674758641849771
0.5680362173814609
0.5715240672398763
0.5719716154356865
0.5820409908828837
0.5767414925677947
0.5862264063370157
0.5825504376322964
0.597197458382688
0.5948253139825382
0.6110893592448817
0.6019992439150947
0.6256337397818872
0.6157895847208001
0.640393208569195
0.6317957910939557
0.6588109482932556
0.6557428101903419
0.6879327591015956
0.6856721567103747
0.7182365091846107
0.7207028933123183
0.7666780421205779
0.7673577922115598
0.8206949925009415
0.8446881475393269
0.9089138828337902
0.940034405352199
0.9995967881233178
1.0
1.0
1.0
1.0
1.0
1.0
1.0
0.9749229708956711
0.8689067431314864
0.7502086271643773
0.6673900452566832
0.5944069009092857
0.5702087969722921
0.5234191192335202
0.5265187602267247
0.5023060908568149
0.5031021976821244
0.49165717746577686
0.49658833132997565
0.48451084888830065
0.49323417981752965
0.48172966482657864
0.4943651435651078
0.486276046889064
0.4844506288208296
0.48431981958784914
0.4920244270434265
0.48462005801649105
0.48772141989666523
0.4902821768223259
0.483491728430845
0.4872887801203979
0.4800936315861062
0.49013154402871645
0.47658751239881864
0.4840691774150797
0.4635787409282357
0.489211373415932
0.4676798268536969
0.4856265430999601
0.4647035227156155
0.47973814965649914
0.45261208079370874
0.47692466276163525
0.46278757311685476
0.47263677239396024
0.4541552532280012
0.4669082934594755
0.45912471183431425
0.4690136181113462
0.46323312789159965
0.4652568441862619
0.45902228109923116
0.4562044869059205
0.45603024164079453
0.4559210401235007
0.46041705555624646
0.44998595999609925
0.4715381187015744
0.4675647562131333
0.47529769664805405
0.45965281711827355
0.4710696985904879
0.4592350254982815
0.47264993617910456
0.45229902905837854
0.4793211401917786
0.45858311754880476
0.48649608065468436
0.48372128480108023
0.5177505074087642
0.5090066490373804
0.5344672582701375
0.5188355431897295
0.5280778863196857
0.5123982146577565
0.5000066694640248
0.48440276843513574
0.48568273622290725
0.4853394276683769
0.4821414811291421
0.4863722616340608
0.4802202685197865
0.4969915021860574
0.5121073197656563
0.4857079054707224
0.42129055446744124
0.5175157193025053
1.0
1.0
1.0
0.7106114073576526
0.2794550858755064
0.4218950778633349
0.3532226981776907
0.4900690084255152
0.5125874614122462
0.5410079515095504
0.5215733005337699
0.5498463932950438
0.542202835140502
0.5648471921794473
0.5631397020048128
0.5782413371938436
0.5798272051753497
0.5841928971253572
0.5799360012511363
0.598304505713947
0.5996299869860153
0.6082731678211959
0.6179217552512283
0.6273038396272458
0.6404223726510551
0.6499208834423783
0.6708479866902909
0.6811356780955722
0.7105375963607272
0.7299707522916143
0.7659183482377934
0.7912567757918623
0.8410013731965768
0.8747994306007166
0.9387270995434346
0.994031348649904
1.0
1.0
1.0
1.0
1.0
1.0
1.0
1.0
1.0
0.9113954362492717
0.7529545660785499
0.6643381656978238
0.5679541062886516
0.550789086522637
0.5022066843593402
0.5036416414993177
0.45762311931162003
0.4794190706637643
0.4538734172331297
0.47849518101808697
0.4539152782877176
0.46874909089557865
0.45011887780665794
0.4760164629279088
0.46451709996922397
0.4844235564217253
0.47634746691294516
0.4862100423099041
0.47831365332295317
0.4840850959824768
0.4855368453200577
0.47090957641427533
0.4758537736429182
0.4671552892804775
0.4677255442584173
0.4569292406113144
0.46845904566593194
0.4539586191377844
0.4730019716061286
0.4613720336893983
0.46582807973483853
0.4501052778674154
0.46129231130416104
0.45301538771265565
0.4555905466398653
0.44347603030311633
0.4611669471659708
0.4469344853625743
0.458392021026118
0.44925045240194394
0.46127260858054714
0.4519293107015881
0.4575561696776873
0.4549478432976586
0.45173554797846727
0.48044200452361263
0.4873073201391209
0.5193664619598923
0.506958805891977
0.5509860249157584
0.5292695401109323
0.5245141908780797
0.48393881250062226
0.49638583352096555
0.44243795237141204
0.46428847644564214
0.43567245483060857
0.47716274213873355
0.44935682943296024
0.4824768423650574
0.4563550907888129
0.5057152086489459
0.46133254382937505
0.43217981230429503
0.3803972608145146
0.8438170054097208
1.0
1.0
1.0
0.25810263540019635
0.3943239568784767
0.3362572399768567
0.4745362002554973
0.5025676296407584
0.5349748656411625
0.506850929540426
0.5483376577045582
0.5208447640499255
0.5587636453108067
0.5297896386767385
0.5733733163317117
0.5511149611379872
0.580316591817131
0.5673751918292105
0.6025752410211838
0.5919641416379701
0.6087857234474863
0.6026719069744746
0.6312015484950578
0.6301015568009527
0.6559828631021889
0.6615354902433832
0.6891214421404379
0.7051160639187503
0.7379761409761789
0.7750748793655069
0.8097201028144054
0.8583071712694522
0.9036543414641116
0.9790355579400997
1.0
1.0
1.0
1.0
1.0
1.0
1.0
1.0
1.0
1.0
0.9636126789168376
0.8372368294460728
0.6999208824574025
0.6230855459290799
0.5487365521887767
0.5139216447685595
0.4737235953507586
0.4645359312369977
0.4554742056146237
0.4452740855465144
0.43857749866951784
0.4309516464875197
0.4386856431221348
0.43354973065333907
0.4484440006509659
0.43788695483668666
0.45526624938010196
0.4399357642787957
0.46542396046816387
0.44869792349017984
0.4571819813770925
0.4357774743674443
0.46108700778816447
0.44383027172575923
0.44930176867538185
0.432345699341541
0.4371072799172174
0.43348321808466794
0.44020122558522734
0.4379356286002394
0.43882051132357097
0.43267410433473436
0.4288997108955789
0.42686980258896695
0.42094873641809694
0.4251666409914119
0.4211565743301738
0.432387016834487
0.426154313774076
0.44090091766174105
0.41628730423107385
0.42780810774869016
0.4041191826220348
0.428419409183708
0.4064544006072824
0.43467569640026477
0.4190034342705718
0.4433897945861981
0.4138271882882936
0.433914862168986
0.4239179167101673
0.4432537824923208
0.4262709695580423
0.4418395125405593
0.4290144510930795
0.4361973234687177
0.4218289193114101
0.4290772051900468
0.4282997397613034
0.43505944706358823
0.4309437118838907
0.42974558820911213
0.44266021894228125
0.4360413894594318
0.4362738199568632
0.43382665339438836
0.44254474150036194
0.4379905707799214
0.4584709468039865
0.45417419023362493
0.49478964413455745
0.49294762126727587
0.507075189230265
0.49260989571316555
0.50624346110865
0.48961073443075237
0.46090609640441194
0.4522498795433463
0.44831067676848624
0.456039557340919
0.46024975064017815
0.47609611175168143
0.4677988306251046
0.4921033057544548
0.4575002198943241
0.40916020025202393
0.43360043883058025
1.0
1.0
1.0
0.777604343796578
0.22902019402610718
0.36395847235128254
0.35983689337520336
0.4993165089546573
0.5019687842206257
0.5021870302774083
0.5164777085368424
0.5070253236999693
0.5142807030321805
0.5179588961038382
0.5377713861022292
0.5264403140563583
0.5433132046759468
0.5351383213711112
0.5583667518684253
0.5654581054859674
0.582275420021284
0.582132168909365
0.5959763442245196
0.6110019711622597
0.6193831910033922
0.6444123263350213
0.634556453626034
0.6794897459255229
0.6773200348916265
0.7256149052320373
0.733105504687381
0.795366246794584
0.8058272763494658
0.8823732423670364
0.9019343690912034
0.9899936841610547
1.0
1.0
1.0
1.0
1.0
1.0
1.0
1.0
1.0
1.0
1.0
1.0
0.9562570401729694
0.8051131526379987
0.7022467931863061
0.5896109009175723
0.5466061618017718
0.4871578399431149
0.4625728658346203
0.43090463078457997
0.43176653575165147
0.40584766313680287
0.4156042182881303
0.3957390107519379
0.4259424892311383
0.39670953511067514
0.4195374659481083
0.3967843673724204
0.412499333404476
0.3975917352929628
0.4187406403875946
0.39981295253835325
0.41738859430866715
0.40032273158434223
0.42044600139682986
0.4056632739043873
0.40423682071081934
0.40883573775347787
0.4077275081104661
0.40147082936135037
0.3934165017865553
0.40144698979000537
0.38400827938428445
0.3918685674756909
0.377948590908436
0.3994146682961041
0.39187551661402126
0.40430615270437487
0.38598122732250284
0.39935664601123627
0.3828803379785589
0.3972796385555174
0.37958090551675516
0.3980596109841618
0.39090709732904366
0.3998898571917481
0.3884705695347469
0.39780183987868
0.3932975958003038
0.3921746767312414
0.3907923164938672
0.3899952586352852
0.3973909720125676
0.37950108994905296
0.39562408852182446
0.3965629190549894
0.4053336659335737
0.38364489740765817
0.4003958838804362
0.392354340555402
0.4132604036744098
0.4003242187179176
0.42335824483556206
0.4001317774507055
0.42144547277288497
0.39926583887974554
0.4242824760022474
0.3937000330218584
0.4178784902048275
0.40174580796723547
0.42104135683753874
0.4098128350909113
0.4263555925384779
0.41132549761617365
0.4272346129840702
0.4181604008944458
0.42979048075293047
0.4183366921392307
0.42200608925259797
0.4286467361854681
0.4168104655503858
0.4359029472138875
0.4311017679613981
0.4562931044476953
0.46637206334290837
0.48940709272849486
0.477923103634743
0.49642248276068573
0.47885143338268576
0.49849945663664086
0.4785549081096897
0.4742858274934655
0.44421599557311187
0.45158779352641576
0.44524111091180424
0.4588622828246999
0.45993247333961174
0.46611805249551336
0.47259717978574844
0.4745984463381755
0.4909519376492117
0.41023458709701605
0.39467225844874676
0.5654802430855979
1.0
1.0
1.0
0.932412673297042
0.24338647985389703
0.3588438096103547
0.33237940031542645
0.43455580846238356
0.5082582550845445
0.527468066058253
0.5305942371823607
0.538830740009786
0.5492611646309447
0.5424338565568723
0.55770791672181
0.5576309410731114
0.5646529758296734
0.5684387737802352
0.5815068216730203
0.5844089893474445
0.5904058917665511
0.5975171396042839
0.602478002058382
0.6141741433253786
0.6195968082906342
0.6349510110155923
0.6421433266679539
0.6658105349514932
0.6545572625004968
0.6914384147261794
0.6990925989312379
0.741192342934507
0.7334246326324516
0.7842516830515583
0.7964401940348999
0.8400845301542287
0.8797882185782854
0.9531390815633258
0.9850583030616077
1.0
1.0
1.0
1.0
1.0
1.0
1.0
1.0
1.0
1.0
1.0
1.0
0.8749847330995839
0.7600595855708495
0.6578586695722703
0.5985099307718146
0.5327532871177616
0.5225162961818933
0.47502514552705677
0.4825709219610381
0.44573257479522577
0.46328035347214713
0.4373195008213503
0.460719012723567
0.43346783463867167
0.45118288101258264
0.4374388504896475
0.4541527854032548
0.43824303700355616
0.44824886950549886
0.4547690981876181
0.4499328142756366
0.4472786349347406
0.44961190055365635
0.4488811148011481
0.4470848904008163
0.4536791688138721
0.44243426918874373
0.4463866390690921
0.43107374759471506
0.45235426154930203
0.4309816941129544
0.4423081628335456
0.42156376513456895
0.44396368092569494
0.42294021425325623
0.43436708580584565
0.4219380046545975
0.43101572199342614
0.4054444044882105
0.42295416173526884
0.41523250196709977
0.435332616751244
0.4172206261184962
0.43182825282670684
0.41873465438100566
0.4265939932070193
0.42028906250408793
0.42449662420667345
0.41961183306372424
0.41672716954672245
0.42851166344716046
0.42031423637193377
0.4316941026440874
0.421627654717848
0.4344815608125187
0.42344955485190605
0.44026025646043954
0.4227202879694708
0.4470479260800796
0.42537445862151363
0.4516963460074315
0.4312163018585823
0.45589404276240175
0.43283138096105206
0.45367789132930136
0.4371924184886972
0.4673520887560498
0.45894753970879254
0.4949475562212943
0.49759280507758286
0.5230887022320477
0.5055668007533374
0.5282645596887852
0.5114821981301131
0.4870165250300015
0.47066661336988125
0.46635082752182366
0.46985798537279744
0.4766436342365471
0.4841758586169423
0.48050480142695334
0.49353311639854286
0.49414773102864257
0.49678190715121817
0.43049295739480753
0.40854631643309036
0.7938790431722857
1.0
1.0
1.0
0.30841229078233795
0.38105477135308
0.3537691733674791
0.4156967783167194
0.5016311194676077
0.558578373857107
0.5502149439424298
0.5646893676129349
0.565897614338787
0.580620820635554
0.5796363315558357
0.5823175369609987
0.5940217521852421
0.6016621840215122
0.6081726455576263
0.6014967578933487
0.6142044693999662
0.6173419218427695
0.6410162735503394
0.6336474151463196
0.6568078112333798
0.6493802498461775
0.6913878758480363
0.6808445393842758
0.7134618660779839
0.7287328811760447
0.7544839900942858
0.7662127100576037
0.7957302243050296
0.8270567710929451
0.8739520616065863
0.9079282121120634
0.9610076948133013
1.0
1.0
1.0
1.0
1.0
1.0
1.0
1.0
1.0
1.0
1.0
1.0
0.9030523115741621
0.7518769897146622
0.6785802053273905
0.5810683295495183
0.5587685227376764
0.5211032688109691
0.5172131914340143
0.49955309976540824
0.4931934155846654
0.48190760842643493
0.48458018686438553
0.47190001925759495
0.47856178877892736
0.496677439969639
0.4928773539118464
0.5004989126696034
0.4996909511506815
0.5116550782725009
0.5001457114420218
0.5095566409208977
0.48881392818984526
0.5083903960098846
0.48912939253396664
0.5086967504339025
0.48110501371467007
0.4907430671904983
0.4703945250977427
0.48711007189478084
0.467493223114069
0.48573189822468577
0.45577695647432936
0.47322715348828065
0.46156587737468147
0.4591812982608049
0.44808351536029634
0.4569520336095949
0.4607311478181903
0.4619914035355156
0.45436366095040015
0.4586261090052496
0.46563187590162675
0.45991701017155107
0.462334381077418
0.46006785282994345
0.4766558971117634
0.46072351571277614
0.47405673383555025
0.4601533548184869
0.47803761110898435
0.4598789689402973
0.4778143333283638
0.46583317049447714
0.48737438125262855
0.4807069494926238
0.5237891528491205
0.5270799268409726
0.5250316970324944
0.5387203839512569
0.5356259593649825
0.5380983067400199
0.5197502124643876
0.4863350650571269
0.45681539208233807
0.46813302811264357
0.4628762324176437
0.48009500758837864
0.46771535598487135
0.4938058592213464
0.46888756303098117
0.511286086659505
0.45560632427843
0.4341021863121063
0.39457475276217036
0.9062698463915773
1.0
1.0
1.0
0.2488653374569112
0.3257363694561134
0.32941644486052607
0.40303561131874116
0.49978233099829933
0.4988156747181341
0.5089487562510218
0.5094599150906773
0.5242710599767884
0.523301007151373
0.516246766149959
0.5335365290031526
0.5322544209435498
0.5375522530041351
0.5254565908435811
0.5509480858741476
0.5343658056566418
0.5665147936848547
0.5605908824300118
0.5896557877250668
0.5683548898665729
0.6129771571057028
0.5957539082975687
0.6326173803471334
0.614173680915714
0.6734963005714377
0.6654141197045961
0.7226705002217161
0.733935080828994
0.7938575952409911
0.81046009987475
0.8863725478516832
0.9207120823592568
1.0
1.0
1.0
1.0
1.0
1.0
1.0
1.0
1.0
1.0
1.0
0.9771162785654735
0.7983768143681841
0.6830048353778067
0.5487833376579522
0.4945941757485374
0.4232360464536698
0.4053747826975151
0.35567834098669454
0.364891166390345
0.3437123530122102
0.34725644418780544
0.3192470589688102
0.33831777769287197
0.3295719510222001
0.33769552567551353
0.3271763140466549
0.3381026928935689
0.33672524445584007
0.3352810650919804
0.3425233835712886
0.3432165643746613
0.35591078731449155
0.3414907201835212
0.34950881916357013
0.3300649704681805
0.3464104784052157
0.33528295701839933
0.35466502194933963
0.3325212552802509
0.35322230842661784
0.32508356858383375
0.34731090086055066
0.3228129763489425
0.340478400528779
0.3227928403672361
0.3338171912680781
0.3243630281920222
0.3403019765508513
0.32633471353634197
0.3374621869392375
0.3355730837416106
0.3281784357854985
0.3348973695703705
0.3333645367290374
0.33579949082394683
0.3303263083300405
0.34192446802499876
0.32773249255316494
0.3523761173028695
0.3383340837255087
0.3614229471099484
0.336141293816467
0.37088096774492535
0.34750872024933244
0.36834801205389744
0.35449274955741505
0.3645170238395884
0.3478535675923436
0.3712116714708181
0.35888993536930275
0.3734532756123324
0.3602764975049004
0.382316720025361
0.37739440767579113
0.39336550801569015
0.37958959095935296
0.38994518931670175
0.39067302142192284
0.3917058796951721
0.4041781207394729
0.396431490074131
0.4094454285068695
0.42537057913235055
0.4678047777576856
0.4600809951079724
0.4873596834710937
0.4808015490611153
0.4929765289077337
0.4890215445144886
0.4798548221155782
0.4511116163249852
0.4554248515901964
0.4380832349898368
0.46713922070075603
0.4592436870549088
0.48691361766250435
0.4793724644551777
0.5010590731376352
0.4920556603731998
0.44178382162213925
0.4156996298068757
0.7216487711221357
1.0
1.0
1.0
0.49253956518264486
0.33869379599190563
0.39936603159287853
0.4360891452414516
0.5384587709312849
0.5657804421964684
0.559024516911311
0.5854105142190466
0.5821049668186565
0.6041345453606339
0.5981350293540897
0.622011145006623
0.6011615442931854
0.6227010729423957
0.6186220359818446
0.6434194968362698
0.6438212882353637
0.656439907733873
0.6640201032786144
0.6895871513701097
0.6949663505945735
0.7064792401501802
0.7203755706739446
0.7365475240328946
0.7660707457057441
0.7925144524721028
0.8330987875947328
0.8474092877559615
0.8978966339099446
0.9252953869879083
1.0
1.0
1.0
1.0
1.0
1.0
1.0
1.0
1.0
1.0
1.0
1.0
1.0
0.9273823073139486
0.8143090193667717
0.7231352613724986
0.6599110623469847
0.628853956002018
0.6027035590304652
0.5890564352101986
0.569704644817711
0.5698503658260197
0.5555495686452252
0.56105238211654
0.5405473005661525
0.5626645597529557
0.546649673744968
0.5709636706993153
0.5487198345558498
0.5695395880342919
0.5483222357948878
0.5700700895671729
0.5527116947660362
0.5610446535547567
0.561381454665404
0.5609043742352856
0.5483290102012395
0.5593839588653458
0.5507972078366608
0.5498160758822477
0.5481727895484008
0.5503881892819682
0.5431916070256246
0.5423115460621257
0.5395688004109307
0.5387254354070885
0.5458554935599131
0.532762639994082
0.5453769414879333
0.5244446537258738
0.5445274108237045
0.5331657128637471
0.5501976268583343
0.5346481209045013
0.5502550822376249
0.5301474794662623
0.5462911745402399
0.5210357651811106
0.5412381033564951
0.5289739049257435
0.5393440476748077
0.5288490900216785
0.537014639030101
0.5336084443285556
0.5366549407093079
0.5297318709885229
0.5271570872880463
0.5350469992110424
0.5208352510913264
0.5329314191037262
0.5250077805474788
0.5448346036373591
0.5296525408765749
0.5393781241097455
0.5243332287984812
0.5509332182600042
0.5290494852061791
0.5515684951257297
0.5295393603253485
0.5563349918051164
0.5283986738664004
0.5540765309645012
0.53830350343418
0.5715936076910018
0.5805088277025366
0.6131546093840128
0.6074951521280127
0.6259217763308049
0.6110238945412733
0.6129041811924322
0.5697057072141398
0.5664463471077968
0.5531639982555401
0.5784881865636128
0.5807226083135598
0.5776327274514109
0.5928137784036351
0.597472540393146
0.5927325806580821
0.5404033276639485
0.5122340062980167
1.0
1.0
1.0
0.8898192185044982
0.34280464694345136
0.5021064723069143
0.4694050435200833
0.6294705457881189
0.6137578043627014
0.6599638597399132
0.6220371647828946
0.6644507003035762
0.6511178150011829
0.6748990192786343
0.657192128242475
0.682195492100524
0.6812997633150025
0.7067261934715321
0.7120073102690319
0.7105657066474469
0.7047835606038151
0.7116872346429265
0.7417325351649113
0.7383804459101814
0.7664068903302178
0.7763793352010507
0.7959348648559217
0.8114984881042924
0.8544247012129048
0.8704665184671173
0.92774836305805
0.9561332063014121
1.0
1.0
1.0
1.0
1.0
1.0
1.0
1.0
1.0
1.0
0.9238138405694623
0.7885076781342159
0.6859480155739083
0.6329859226889696
0.591109906466398
0.5746959957096685
0.5576972990659141
0.5695084462494707
0.546695273335637
0.5677820747419007
0.5485366208109321
0.567950860012879
0.5447794452978939
0.5695989020592849
0.5548390921300397
0.5771017060999416
0.564017349826612
0.584257436986607
0.5691005060929754
0.584665471038351
0.5679655644385134
0.5687157709546742
0.570426307449894
0.569263949913054
0.5683563525292221
0.5648809832460351
0.5675587397109163
0.5604998806384167
0.5656262630084711
0.5551737849618961
0.5688329980112377
0.5495858003902659
0.5709164206993691
0.5548439743186174
0.5739945732421293
0.554079800478305
0.5855415037705913
0.5641556454322044
0.5919115697622062
0.5660599584801462
0.5984617259567333
0.574986260715189
0.5909542244724534
0.5764576686671219
0.602864321071191
0.5817541847370056
0.6030942992365723
0.602012747142809
0.6099670919731542
0.6088335868693437
0.6206210868646147
0.6145859458891161
0.6172362221506795
0.6330867119585925
0.6390357599493148
0.6606054704888702
0.6682487922948253
0.6895351396117426
0.6928361400116677
0.7171497053589679
0.6936565338941735
0.707206452528337
0.6684464249490822
0.6743909894907492
0.6521056803232667
0.6676786912295026
0.6693228212692665
0.6848404243730399
0.6856638437729028
0.6962190495264599
0.708590570092464
0.6792594570701789
0.6219107681842649
0.6757230890662399
1.0
1.0
1.0
1.0
0.4807278733314983
0.6352594992222352
0.581585617415534
0.7066265674497804
0.7671397125338403
0.7947098173320113
0.7905369494625736
0.8024576973751749
0.8058614284814265
0.8189578445883834
0.824176808092556
0.8296063147784128
0.8443098157341616
0.8522463016734175
0.8599511729467875
0.8652021067335529
0.8714236131280112
0.8773396073514901
0.8770176490736349
0.889480458034796
0.8988012122910503
0.9170443297502986
0.9104037998060786
0.9287688926548391
0.9273639921024035
0.9661424404074299
0.9607638230731717
0.9949349156831889
0.9920968268640177
1.0
1.0
1.0
1.0
1.0
1.0
1.0
1.0
1.0
1.0
1.0
1.0
1.0
1.0
1.0
1.0
1.0
1.0
1.0
0.9438156550259883
0.8788232628844519
0.8252947153225934
0.7909322026202099
0.7684733412952228
0.74692477683658
0.7464539520181406
0.7495361723234355
0.7449847478784861
0.7472031893189326
0.746111494788645
0.7577899811085936
0.7758395980888637
0.8108436621297652
0.887888276799875
1.0
1.0
1.0
1.0
0.5769279533883979
0.6368724370739292
0.4836790545655559
0.5368735655762923
0.5540707009431604
0.7048367640752304
0.7272832887052231
0.7366562645331522
0.7321656421455247
0.7444148489637283
0.7438817132473107
0.7469517990173102
0.7524952891284065
0.74444014728855
0.7526999498296714
0.7521722738249418
0.767060663806576
0.7625179925110596
0.7818313803306024
0.7725350496595594
0.7952753165816662
0.7942145850815654
0.8131009311855154
0.8152342090656303
0.8504799812415896
0.8624160285842392
0.8901454546307528
0.9151975914714864
0.948489532012708
0.979284329441193
1.0
1.0
1.0
1.0
1.0
1.0
1.0
1.0
1.0
0.9556041337285353
0.8414258647793087
0.7876366871854292
0.7162786403437259
0.6974246190801082
0.6548486982961826
0.6595397581352744
0.6311715204148338
0.6384206812670061
0.6227994758058444
0.6350549847412343
0.623513195461411
0.6296902660853192
0.6189783078219213
0.6270903551081092
0.6170347041699265
0.6190101031660428
0.6119767661531231
0.6091668725489312
0.6185856191676081
0.6038721411247229
0.6101853639272325
0.5930337082584137
0.6093349502975717
0.5832664986101083
0.5986803261042634
0.573637951474806
0.5858468350605966
0.5624510474599501
0.5762884619843903
0.5533016657480545
0.5720053901137911
0.5461195695702481
0.5612874925893584
0.5423294919693775
0.5534754112599629
0.5474679166730386
0.5562146852246957
0.5440803371185463
0.5504579511994996
0.5433279669776091
0.5384343227046029
0.5421909819450816
0.5354147453971413
0.533477073223974
0.533486623799786
0.5361982020400714
0.5263526639651606
0.5380426095308117
0.5263373890181942
0.5358911258302006
0.526282183606821
0.5396425960126748
0.5269538636072546
0.5320216209719251
0.513270046877302
0.5302722353355136
0.5219420484802161
0.5301173089879015
0.5100686536690309
0.525525756973731
0.519695618648651
0.5209332369734734
0.5211336647337044
0.5098084312617461
0.5108124148669935
0.5174478920442878
0.5197956414488052
0.5074099583990658
0.5158404217406303
0.5029052381832783
0.5158617368641851
0.5038018545815118
0.5100335285019222
0.4962629608221786
0.5154990152648817
0.4917772960275557
0.5172122610818746
0.5087605147056431
0.5433731558431331
0.5213525612818354
0.5512948228400176
0.5292715850718948
0.5478280400067899
0.5214386211928571
0.518732965607411
0.4774393176009413
0.49237943316138155
0.47493081975240486
0.49068005149721367
0.4803133676977156
0.4957331016392469
0.48911639337618806
0.4998453397607422
0.46016338769371223
0.41252576048956024
0.46064674328201216
1.0
1.0
1.0
0.8304070260565517
0.23623940574557958
0.4022774700634521
0.3345266254830614
0.45877709606010963
0.4609346175733916
0.49576559688324257
0.4649423708993575
0.49690662687007725
0.47186494767267995
0.4993790803542252
0.478789087709265
0.49855207427967185
0.47942114421921767
0.4950277614740607
0.48614327157585463
0.503066914370126
0.4928304914353717
0.49830873653042607
0.5001239994830892
0.5008727432958208
0.5122336289370248
0.509682652572454
0.5316280388311565
0.533267749216572
0.5422952404382356
0.5463339153360551
0.5762679112940354
0.5807673117050979
0.6010031304230006
0.6098703854579424
0.6406810412547939
0.6559979789041026
0.6879106258645138
0.7118557414344651
0.747964439918083
0.7743830202198687
0.8076586408740536
0.840694726347843
0.8667252075320533
0.905464436044463
0.9463908019643885
0.967214806247765
0.9644027667190865
0.9511685723697948
0.8907863282529498
0.8349694843240855
0.7313907524317054
0.670866541115261
0.5750415781360105
0.5317906184197085
0.4617323682310026
0.428969203296586
0.3851013946082496
0.3915939834852801
0.3576736386910223
0.3663135778779145
0.34606243024705285
0.34835914423023767
0.3299982709438983
0.3412929548291469
0.32071315436152437
0.32684630114201363
0.3156597864333306
0.32453936564702623
0.31259081940662214
0.3133585729999026
0.3069698398980233
0.3077612736687312
0.30664540940217855
0.2999822109316999
0.30087775092140084
0.2898758199552058
0.2978021159736234
0.27805942486705504
0.286486356873715
0.27589282320755015
0.2850966495359458
0.2745162225922014
0.2849175805153343
0.2703448138318352
0.285817652135386
0.26893638343486337
0.28300892712116665
0.271577053892788
0.27561649029364205
0.2659502563769054
0.27785487520690744
0.26846307520674806
0.26847666583142676
0.2615520710556638
0.2619105643706984
0.26707546994215525
0.26578244580388677
0.2723642589117411
0.25979627114985887
0.2723670464922927
0.26120522544836333
0.2783940204206015
0.2609171075612057
0.27929596610556023
0.2620606470893047
0.2770784250848407
0.2662635912456954
0.27494352932698407
0.26026003356391714
0.2769157383058608
0.2617277331796542
0.2825168887686652
0.26569133040747406
0.278062684071172
0.2723701023152979
0.27641346903544145
0.2739687350327119
0.27811218538301596
0.27737572375084457
0.2771384796644501
0.27634879290666353
0.2726171395556315
0.28404377730441854
0.2893866069083803
0.3141853591646066
0.32009505294346263
0.33134563795803373
0.3213421723592658
0.3253866340197275
0.2920757192960062
0.2954738545504217
0.2823600748799686
0.3028190485655073
0.28666608618003486
0.30116783406883163
0.2914809843656928
0.317375858514909
0.30636206568933455
0.2775350140107764
0.2387405318097243
0.45746486974212297
1.0
1.0
1.0
0.2252257354385887
0.21221619148114254
0.2213160536807548
0.2604885058074597
0.3235048137455391
0.33746448801161366
0.33314840317420513
0.34603656102882463
0.33742895096745745
0.35858939747877855
0.348162698283595
0.371215931093743
0.36070365139845534
0.37447231446630513
0.3599407539744358
0.38273565937853576
0.3702808215100708
0.39531762063130044
0.3840274212134874
0.4022548225224635
0.3988508772766739
0.4156438647248879
0.41691654799226646
0.4344655432936385
0.4410068014920904
0.46052115896904483
0.4715801355923035
0.4906825588719034
0.5085236699614123
0.5283365013113668
0.5512882647004199
0.5669888134285804
0.6053102844693248
0.6266879239394545
0.671131860970993
0.6925158030405265
0.7379751762033295
0.7585607192454527
0.7980456608451068
0.8151079836261861
0.8544038396947353
0.8365517906693951
0.8189616937874125
0.7439551455291659
0.6674984403004206
0.576169024838151
0.5039795816418406
0.43850818189958823
0.3900868876091096
0.36263179063664064
0.33650817785189
0.3291775504314738
0.3135175680170505
0.31695914445830004
0.3044736797677762
0.3130418131065794
0.3032125938345234
0.315866292466261
0.3078763961602915
0.3194793342953842
0.30916462644808085
0.32395425324610433
0.3090551018388448
0.3253392009058738
0.31463032519850864
0.33038366021836146
0.31471423130787296
0.3312783151481288
0.31778463738259505
0.32744183855427955
0.3153672389912086
0.325125005153005
0.3127843251816266
0.3169330625218456
0.31679821281215503
0.31618333864847536
0.3190466393822728
0.319805339806416
0.32621017644810857
0.31523848925551856
0.3215220805419812
0.323081996539324
0.3312879513527528
0.3245613628652452
0.3336880754511321
0.3223132935939851
0.33720416282080296
0.32118332803702265
0.33239202634434467
0.33021312651652013
0.34121104890120835
0.32696278409394475
0.3419446745440145
0.3317334900450222
0.33884820826008066
0.33691743592056345
0.33738109600536126
0.33900724821552664
0.341622366952678
0.34488384714134374
0.34958105158385344
0.3505001893715057
0.34684126380178065
0.3570417524793051
0.3479243163308484
0.35712054350846467
0.3484087994298635
0.3578988819160957
0.3538279693173164
0.3737792804927437
0.366855377249415
0.3871005483248112
0.38396594087734115
0.40356963742522706
0.38774097255091744
0.404022462381813
0.37828040556053466
0.37965673886096735
0.367271209615965
0.38099806543908465
0.3745299276951838
0.3816398563865702
0.3800526987283385
0.3954165634490492
0.39233263964835585
0.3830987572327963
0.347394975964421
0.4724799481524502
0.9712900698929505
1.0
0.9472761375116484
0.3057652613008947
0.3338488948144054
0.3251297379501059
0.360967971290078
0.4013239110698386
0.4281802502219868
0.41497345564877025
0.436133866045187
0.42637469892653745
0.44119780363472705
0.4343226773947969
0.4481858371479771
0.4371311188627264
0.4535570258970482
0.4537559440158098
0.46260958972834654
0.4605377949482098
0.46410705360054383
0.4678871676567213
0.47366509074693947
0.4808171831189726
0.49134233559546364
0.49990471479374377
0.49880846885625374
0.5235974157131411
0.5257237713557428
0.5466403998468915
0.5502010828714917
0.5793757752848919
0.5936264781560474
0.625798356018582
0.6450748645649916
0.6822963490564519
0.701575870436306
0.7402102209615886
0.7556735713387301
0.7904468467489376
0.8016099349204243
0.8358964970494563
0.8340588484657436
0.8249859776707954
0.7748002618416614
0.714623596457219
0.6426833950134038
0.5762043870825152
0.5211799453187584
0.4751010029279327
0.4444324410966657
0.4233494951090188
0.41122410607571674
0.39982374968302586
0.40518095810585936
0.393305334431706
0.4018815262720503
0.3930320578112869
0.40184514379103276
0.3924729201056755
0.40236047123760715
0.3976821562319494
0.4069729111632248
0.40032190900909326
0.4094025979571099
0.4027394144840337
0.40950154604876043
0.4008710017646795
0.40862743418426
0.40516123295668677
0.4050958099490596
0.4057986960249
0.4025122077369865
0.4046421840799909
0.4049433362642576
0.40424186526886874
0.3987614631208035
0.40375540608736415
0.3930710323887553
0.40379064607344234
0.3938889689731247
0.4055145796262498
0.3932062804496964
0.40405375201900123
0.3925657142152141
0.40779375870877815
0.39838171382939586
0.41022339233318583
0.3959739814009341
0.40597599054237027
0.40454015413332545
0.413178381979525
0.4053381364368963
0.4135126642279593
0.40793292003155485
0.4116959279683404
0.40730424157803435
0.4131583236021058
0.41120597541851617
0.41234838006317676
0.41735221091494673
0.41926298795571293
0.41968094823326985
0.41537308539444534
0.4176542641818112
0.4175973157321393
0.42521610839629426
0.42426534258431126
0.44249215946808673
0.4414320089662379
0.4497208183519524
0.45022649364067274
0.4508535922264003
0.445951342509156
0.4471646862354864
0.42896017319865337
0.42790309627897705
0.42964828947276706
0.4296093514348258
0.42925223548448066
0.42788478848831024
0.43541724219398825
0.4340986546991347
0.4514369537586912
0.4296495296599142
0.4152112010060843
0.4195342107024265
0.7110692884905256
1.0
1.0
0.6992986263835314
0.3409036476525619
0.3980760702323531
0.38322915953307113
0.42566697172495455
0.4555780710460855
0.46268162995643614
0.46241525806256056
0.46226694615636116
0.4649376379847808
0.4673986287295241
0.4725285296972788
0.47512737448169984
0.4764387837959642
0.4803169729555717
0.47927846970110977
0.4877068963994394
0.4866190351966037
0.48830977011300425
0.4862734922386583
0.5019395557077873
0.49912780746955143
0.5101314578946783
0.507262633836806
0.5284874954031424
0.5237102171062162
0.5470031928856316
0.5415523066307647
0.5682330817556231
0.5718071318371194
0.5973994209993412
0.6028872637936594
0.6350992847229641
0.6523062721844751
0.68654440393431
0.7062155681809325
0.7446674703380127
0.7609346727843601
0.7937771567977274
0.810473522601604
0.8289340666535567
0.8196077766527473
0.7889922655488897
0.738827587757928
0.6771536318467811
0.6147543195591949
0.5533444409559608
0.5143894702399872
0.4772596123272604
0.4641231800445419
0.44844723944718135
0.4483234121230325
0.43656533995941144
0.4392532284298369
0.4322557632304743
0.4375953933030766
0.4326808458151012
0.4425870798462334
0.4333016980714063
0.44324548587542256
0.44080581184674195
0.44494249237499844
0.4408925847587069
0.447876650715384
0.44486326985410096
0.4458644509054017
0.438896402497417
0.44008406609763834
0.4419693481974532
0.43529991812478225
0.43801874132545304
0.43684635461626203
0.4368298373670473
0.43158611491908616
0.43757140545534134
0.4310934370291745
0.43609510444684724
0.4299588472047734
0.44244378449760424
0.4327594692130196
0.44495274332635215
0.4314629734274565
0.44287253476649846
0.4347472727518972
0.4391447496123745
0.4338103587876617
0.4433966901080133
0.42935514703438005
0.43816964481410164
0.432577044786424
0.43556735831711463
0.4351187557417261
0.43500142602651853
0.4386651440177179
0.43815461596943983
0.43832590036807406
0.43857174887486794
0.4440677392197293
0.4385158381908297
0.4445468021705367
0.43555855948210065
0.44884866340343504
0.44031941027703103
0.4473780793054144
0.44116242788058974
0.4516001174894977
0.4395089249967358
0.4530574134224728
0.4440674606060684
0.4610032010448398
0.4544707447586943
0.47135568183262866
0.46299746863668545
0.4770984827487868
0.4711748244944472
0.4745111289724737
0.4696014264578322
0.4617734789878031
0.4538447786569229
0.45509791743570316
0.4553698666908296
0.45577344584803664
0.4596241221314119
0.4598299548368966
0.46764511246343526
0.46877398715778684
0.4609342057218636
0.4361211460430626
0.4444746925142339
0.6862892547604751
1.0
1.0
0.8692352451792406
0.3711166115449703
0.419061707074197
0.40193077181816295
0.44888736290592995
0.4732654555145098
0.4918935857246981
0.480481483264556
0.4941045022404517
0.4859919094364441
0.4970850364483419
0.49374762362368757
0.500070391522465
0.4933431686712096
0.49802823048361217
0.5017875831201937
0.5047624558424592
0.5075470751207257
0.5060869861224666
0.5175221842362805
0.5158636778215098
0.5216435572361543
0.523850333972571
0.5336540917928615
0.5384133044998852
0.5491693430782818
0.5537093176952087
0.5699080746631031
0.5751199272481571
0.592061580425917
0.6064062910810881
0.6230332189057615
0.6435697016654672
0.6665416159930682
0.6910937239996898
0.7190416711093182
0.7466266871503453
0.7696494072155204
0.7975807410430403
0.8163833454801145
0.8459650763673932
0.8425343744979077
0.8308400353019678
0.7735141917946105
0.7191396644645678
0.645655302483964
0.595724328530715
0.5422666757307003
0.5218994141366042
0.48679283710304794
0.48261228995607103
0.462326982632988
0.4683126474619213
0.45602002400998787
0.46066977040656704
0.45672455923620203
0.45989848817526535
0.4556274965527787
0.4574479069898464
0.4573562528484335
0.45876017526224533
0.460573547721988
0.4578552278701825
0.46244524070160564
0.45795871913746244
0.4639243013864866
0.45716990710930344
0.46414416532707337
0.4543648059526418
0.45757109873614876
0.44877418507096467
0.4556633391061465
0.44626413269309173
0.453931349808097
0.44736366158056634
0.4503303214064996
0.4422918822476828
0.4494505634815331
0.4441193703406075
0.4498381688741186
0.4360298068116526
0.44243005067178487
0.44264541813740427
0.44080025962290775
0.4408365295847207
0.4419735604432679
0.445894647418159
0.4393691296517014
0.4426867564539944
0.43602698163242753
0.4412802317150414
0.4340538021374062
0.44651961357123005
0.4356753237654815
0.44331662079579914
0.42819798576098467
0.4403119098451218
0.4271197406284304
0.43973325376287076
0.4308585596249489
0.4444664089547944
0.4334938892527719
0.44271191749268757
0.4331083003126954
0.445987536731975
0.4350627337409335
0.44358048307363485
0.4363519957714418
0.43812430916609174
0.43573692169090456
0.44356116929489914
0.4397541724030427
0.4435809869190508
0.4392419537288994
0.4409541377895653
0.44268102978943114
0.4390410629197291
0.44486741750596004
0.4422336558856291
0.4470916219831042
0.4458327577631418
0.4523378170625102
0.45578430155716143
0.4690423824210872
0.46609082012709385
0.4757748107722747
0.4632248852622748
0.4709447760145008
0.4531132427275133
0.44756423985633276
0.4459585033225581
0.44632181000116866
0.45202448106709536
0.44474982917055117
0.4567354557304476
0.45468366673099014
0.46467913812175893
0.44479342067769306
0.43606783855760806
0.4234276890383085
0.6755958699565063
1.0
1.0
0.7410341295059805
0.3527216379131268
0.4191560688793393
0.40321707099017584
0.45546563250191596
0.473111433988956
0.47630323200273395
0.4774958138268371
0.47914270524229535
0.48247950085501634
0.48061047173541277
0.4879828402695051
0.4961027903429831
0.4965085381441051
0.4977150521611756
0.49646485931963336
0.5029018918282623
0.5034368063858584
0.5109770673893586
0.5108611254188922
0.5167922152483899
0.5163916517357731
0.5284393787860483
0.5267840996811936
0.5446552184753936
0.5431796017276185
0.5621317044385397
0.5564883037630631
0.5835108625692211
0.5822825632839586
0.6050656155587095
0.6088058214385466
0.6374624637429285
0.6462237383898587
0.6802244993840709
0.6981778436729658
0.7328404379462535
0.7526958605802017
0.784715875717515
0.8040157153932158
0.8271912549852471
0.841183218314514
0.848151217737146
0.8381347140919131
0.80489090590595
0.7551270758101526
0.7019255846766084
0.6513170523208263
0.5939973424038552
0.5601389750627842
0.526678219463119
0.514151970507774
0.49260038421333974
0.49258135813447435
0.4838882581324532
0.4895651646890532
0.47884596679240155
0.4894921293647764
0.4814548366525574
0.49372751006970594
0.4867533648345791
0.49362216123436964
0.4922116299716481
0.5014438350410834
0.5003430189430683
0.5042071879830239
0.5062031937221638
0.508033214458615
0.5137246185150393
0.5103083153648147
0.5132439366608885
0.5106375338556254
0.5165886989902775
0.508999800419092
0.5163015967688285
0.5077157970474482
0.5198548070489603
0.5107835544775038
0.5240266853373848
0.5124683238278283
0.5273988529550424
0.5160470150033866
0.5215603651098321
0.516493553508542
0.5283691350925042
0.520548910888194
0.5282516220914975
0.5250435729162599
0.5307455142738338
0.5279721009348786
0.5356835271536645
0.5372593077719452
0.5374352816391729
0.5380924679711725
0.5398012341641448
0.5442636451273236
0.5465295523272243
0.550609834676591
0.5474780987432133
0.5547493577586871
0.5482162794103627
0.5579784976257101
0.554383187646484
0.5640414106810433
0.5594196279431299
0.5689902400323007
0.5615248598712765
0.5723930403148237
0.5682518064256871
0.5764573564237525
0.5707853450761579
0.579084959761374
0.5804386005419808
0.5827756119058476
0.5906798107039092
0.5935336075019759
0.6079939859599538
0.6095793153211759
0.6230591738705018
0.6122549480769732
0.6194880150983904
0.611294903308449
0.6090017473413927
0.5930686814194904
0.6075261057779258
0.5985878590829777
0.6133152804795834
0.6013258171988028
0.6207332552220892
0.6067452301225884
0.6245683097358443
0.6005934924473406
0.5979630631448608
0.576195502480068
0.7883934441869845
1.0
1.0
0.971145638282748
0.5279540902240492
0.5825204331089866
0.5654620029578681
0.6042571737101984
0.6363007950896157
0.6552906756949209
0.6507902745608793
0.6648398967739815
0.658242346782035
0.6720856748236618
0.6670115274551305
0.6772855119934358
0.6723498370698752
0.6849874913417586
0.6775925390340646
0.6937526036610621
0.6879564366601194
0.7014464289606801
0.6951356562319525
0.7107251008005827
0.7035668244790154
0.7156280156451403
0.7097658768305722
0.730350596167271
0.7283142660643951
0.7471357935607511
0.7468284503071633
0.764713970712486
0.7730735199354914
0.7912667006946851
0.8048176067175683
0.8187323304420113
0.8425921249936958
0.8625076364203693
0.8877166471190027
0.9058135287219253
0.9350463555625355
0.9483143772073938
0.9744082537797267
0.9826548684802109
1.0
0.9990192386040914
0.9816960715653547
0.9292028055091265
0.887524805755915
0.8250684588463205
0.7769573582922117
0.72616213695323
0.700086087989202
0.669381773478405
0.6567349711734952
0.6406885030022298
0.6389543725403058
0.6348550019317984
0.6335087187503305
0.6295525900925785
0.6258000680317541
0.627225497394818
0.6267969581842158
0.6294101316068922
0.6222144719853749
0.6315553753035077
0.6255834780623395
0.6352589563980957
0.6259356192500615
0.6318342571885724
0.6236734219822003
0.6268021560084921
0.614749630104234
0.6280944803694887
0.6124077008256397
0.6216575518282831
0.6086592820208938
0.6122071632883694
0.604677571662634
0.6099548757813444
0.6022141063335409
0.604599047676295
0.599493621775793
0.6003190462674687
0.5995043533719246
0.599918518267194
0.5973438495985581
0.5968637636498987
0.5984487758866194
0.5960364211274924
0.5933651725748992
0.5912933514549936
0.5915506547833049
0.5833526890993685
0.5929642259501383
0.5840086074832638
0.5914565957618516
0.5853977401389189
0.5897130751538413
0.5837310397455917
0.5897392166864815
0.5818504347043673
0.5889633520466208
0.5851744538243778
0.592446925943227
0.5957656686723969
0.6005164530999579
0.6001915322601441
0.6077733497953901
0.6052267461986413
0.5979883556156552
0.5980403076186944
0.5836269811434643
0.5823077253766812
0.5727130852224702
0.5784284228007095
0.5720437077814127
0.5829260075949012
0.5715101979668357
0.5859600699296302
0.5771426953907346
0.5885126092219166
0.5539359464150234
0.5510719149217943
0.6046028024229821
0.8916663744370817
1.0
1.0
0.6486730442278145
0.4907715937464584
0.539131153901193
0.5228825890177321
0.5674116885504424
0.5833292371894176
0.5924289885099336
0.5850599651855308
0.5940821702243756
0.5902284515087969
0.5958843607544667
0.5907182955799521
0.5995652271077498
0.592572538397309
0.6018655815932463
0.5909259488705167
0.6026214835076258
0.5944862990832311
0.6070402860700737
0.5967293324311171
0.6110795929494296
0.6023305393081322
0.6150835102874623
0.6086564546487111
0.6181497617340196
0.6182386271487209
0.62751656562396
0.6283015883494109
0.6426197458105285
0.6479933300847673
0.6587773193126064
0.6708434120522764
0.6822778308321693
0.6985047458675346
0.7142627473144854
0.7334122750283146
0.7475353605218976
0.7680719573747116
0.7794630041656099
0.8029506503366438
0.8133768421597051
0.8276809604518467
0.8180414632935442
0.8010259164641074
0.7574824419044184
0.7117595610524342
0.657585401593253
0.620340071580196
0.580997524375271
0.5581415603970472
0.5366760317993813
0.5288684835154733
0.519130767132988
0.5115885619363062
0.5103044067907143
0.504032808656106
0.5001371918857503
0.5007304795146302
0.5042125079637209
0.502464176116956
0.5008100232395736
0.4970681652711866
0.5049943351266155
0.49722556283016806
0.5045072882071628
0.49797825268742146
0.507001260876623
0.49628696666208416
0.5008417610203943
0.490207233723419
0.4952594097659661
0.4852550035479705
0.4942296243759176
0.48281675474299063
0.48796962644811603
0.4810214921785727
0.48345139452574737
0.47834709010876375
0.48099738598983144
0.4788557722732182
0.47901741395359104
0.47776775311043396
0.47520013892598667
0.47222337328999175
0.4712238451753713
0.4730262534733449
0.468708326644877
0.4748113245775837
0.46947644814116546
0.4752239890521139
0.4666604713252914
0.4756503228665355
0.46456711847341225
0.47225766747896597
0.46254420719057626
0.4685159327086085
0.4639971004784339
0.469370803658735
0.4615531555746465
0.46642744509135897
0.46355818274383076
0.46541514090592057
0.4600701034018674
0.46175979063489125
0.46160107476348955
0.4628141760266316
0.4634135484222773
0.4628764216605698
0.4680338354449599
0.46845848098121046
0.47982793955342223
0.47837743424872253
0.48860164205081896
0.47507867964164996
0.4842381837740807
0.4686663329438062
0.46815284162236176
0.4551763630326217
0.4654307882591004
0.4543043523756015
0.46197699881436094
0.4559971067262737
0.46414726129562045
0.46110296303507126
0.4658955919225315
0.44451456414542945
0.42878900547757076
0.5256888787102989
0.85712176506028
1.0
0.9011711457439027
0.4169599586116514
0.4020303098691714
0.4142242913034714
0.42883619093774694
0.46685627050367273
0.4648236580368069
0.4754309876939023
0.47055850335338195
0.48014053419933533
0.4739454011683445
0.48082153517086124
0.47756111357476144
0.4858850418151003
0.48177210370847784
0.4894793504700952
0.4830011234004873
0.49406384168705664
0.48922640810288776
0.4946072253487803
0.4949032990570778
0.5055605137764172
0.5079857149360635
0.5086706008168799
0.5212474213733272
0.5282381301979573
0.5347538295818256
0.5448244108428296
0.5601879084257259
0.5729019112936264
0.5929820035321827
0.6064854482266886
0.6336884325495153
0.6515830018286632
0.6863381015429999
0.7002770374246691
0.7289743728377218
0.7449359625888371
0.7723820545646225
0.7737023379308385
0.7801482410380258
0.738982125011415
0.7029792614074146
0.6392075371894435
0.5922385068868493
0.5392139971994346
0.5043738976276353
0.47049364286977263
0.45579506200096914
0.4418815491671125
0.43411856163618834
0.43030587096668593
0.42492726703173106
0.4239673076338554
0.4216191400128612
0.42538538478013255
0.42053712517315456
0.428948158946142
0.4206269088807213
0.4277415815269167
0.42323981672176114
0.4279407142435695
0.42114112301613654
0.43140943361647527
0.42356919710119884
0.431133309504735
0.42257050005643804
0.42298977002887417
0.41713961308699765
0.42466471897359803
0.42021729182876355
0.421859949222349
0.4178813678391034
0.42214307137323714
0.42122657226870414
0.4182902578620781
0.41795969420119683
0.41335527102561453
0.419511598268323
0.416141431868401
0.42034406151961434
0.4132194239828239
0.42052132254174357
0.4139908037100531
0.42063805376511504
0.4100684185320979
0.41861695288828793
0.41108262816915475
0.41912624257738285
0.4100979070974944
0.4213296466235761
0.41551964466558317
0.4208165368309194
0.41366317504986255
0.42361261811653705
0.4157112146471369
0.42623498167583423
0.419379458726981
0.4251910712221739
0.42502717325548095
0.4245550165665229
0.4212237311940886
0.423132363720375
0.42821988388818033
0.4256876949009428
0.43136440637170004
0.42680310019439044
0.4333174880193722
0.4297792622525859
0.43814856583424244
0.4407116370782207
0.4536119889756775
0.45169148464575903
0.46297822671201194
0.4502038705273431
0.45568384543141927
0.44290927208937275
0.4400304983652406
0.43703714003935373
0.44247017677128875
0.44079071818550875
0.4425930379894787
0.444067371453983
0.44344554626791866
0.45565841119470846
0.4407295209675738
0.42638276251655516
0.4468015843594822
0.7163204466977358
1.0
1.0
0.5803075939105792
0.3747231908256768
0.4230537868572819
0.4094356590602876
0.4556994103922256
0.4650578238093833
0.46913209151911583
0.46926951413927814
0.47263470655732204
0.477280699375496
0.4778722903197637
0.48100680509043
0.48210344941832073
0.4839812026388158
0.4862095089287816
0.49141615260042554
0.49468734751486404
0.4981653643048246
0.5037017761164583
0.5067302706281379
0.5168851718440507
0.5230239942671643
0.5377947027807852
0.54363840709616
0.5635429620093289
0.571404311016586
0.5969076302303952
0.6067846242894153
0.6391611900397882
0.6514271405110744
0.6841459619872016
0.6963829156892833
0.7256436166278558
0.738439709285842
0.7636056219589387
0.7651920920618511
0.7699150176364882
0.7392135671335867
0.7040993515491153
0.6529366629359498
0.6095931280993062
0.5625858406519724
0.531853120578846
0.5012316775104375
0.48612765544599135
0.47594428940351774
0.4672445899149985
0.4647175899404122
0.46073950034790184
0.4622386209787036
0.4589142803009267
0.46466638778336555
0.4574657770498577
0.4673835849011372
0.46304321284799277
0.4691819033829486
0.4630321965916295
0.47043279245784564
0.4662764327280911
0.4760219479222389
0.4724029338065797
0.4781700707920037
0.4719192474678824
0.48058140712534414
0.4751138558956174
0.48122385389632355
0.4787966055748596
0.47960726927009495
0.4799050631226101
0.4797352475698228
0.48181610941868175
0.4801538054937037
0.482879684736495
0.48141035527086934
0.48916624820857457
0.4817796953784307
0.4912184508137535
0.48566748152705685
0.493075542806135
0.4852665017148815
0.49555107711956625
0.48840918735767486
0.4983789779061413
0.49227475365886936
0.4989305734653729
0.4912557522289155
0.5019410120319661
0.49464465749609987
0.5025362883829436
0.49803291378775905
0.5042746890297657
0.49995882068110936
0.5034707299430223
0.504915879346062
0.5045226147547236
0.5042375497423731
0.5075209979500841
0.5103913964044481
0.5049726776103168
0.5112901136957315
0.510853074825927
0.518088114237527
0.5169312718241048
0.5213504290673436
0.5155668854808206
0.5243579275537508
0.5201465682800863
0.5270714836935237
0.5222256264083809
0.5341405186565245
0.5372420074008316
0.5439682227601921
0.5392136296905503
0.5479024321564576
0.5427397957847958
0.5448922887453685
0.5373006918620418
0.5330229370368504
0.5331310124849368
0.5361123809951198
0.5387408371690288
0.5385057305453034
0.543318275403774
0.5398912707723014
0.5541294067430688
0.541724940077307
0.5302030346329885
0.508597885677035
0.6571717934715717
1.0
1.0
0.9366376514233815
0.48439279939655755
0.5071906965810604
0.5020501032730327
0.5179029006168802
0.5582163582994191
0.569524611630847
0.5734879158440205
0.5785906058874872
0.5849061904554047
0.583353081295787
0.5887436652580431
0.5890888433463304
0.5886924609404139
0.5961309449896866
0.5969387281708565
0.6051983173216741
0.6000033257401877
0.6099515511424107
0.6058354970170908
0.6191762885738118
0.6153310885197996
0.6277494468840435
0.6247349167711829
0.6387954188883624
0.6354640316672264
0.6508831567508764
0.6484723765544969
0.6659064257091755
0.6693799660131875
0.6905680478188583
0.6946370166919887
0.7284482862097499
0.7392448227987851
0.7659891741756473
0.779982697007516
0.8065265976381288
0.8241745588277422
0.8424061216885411
0.8610386737926732
0.8811046163208299
0.8963645997688896
0.9014200279632878
0.89127398085813
0.8562946508019149
0.8222868093883717
0.7684688962626127
0.7259138743346145
0.6728285282058546
0.6485498779801742
0.6131053038576442
0.6016072889627547
0.5804944328790923
0.5814161811333007
0.5669628575391095
0.5697706232436464
0.5611876311276444
0.5628722957331025
0.5602938776403081
0.5631077793221888
0.5578863043778983
0.5636116054976263
0.5644086469639453
0.5644288996946243
0.5625023499503342
0.5652367532539252
0.5671690811519791
0.5636989527619549
0.5693805021550595
0.5642081200962622
0.5686522234474098
0.5591896783319598
0.5734810731071875
0.5629947840641262
0.5720636941920686
0.5595860394513587
0.5678379818540641
0.5562821456322572
0.5663673960427582
0.5542002751207356
0.5641405382344356
0.5575498464744565
0.5610176207209288
0.5496376156325029
0.5572639137074086
0.5511668086055889
0.5547429527816689
0.5560541652734908
0.5550597646816503
0.5558854703174728
0.5492065824503689
0.5570561004430273
0.5539160290441414
0.5588468676247584
0.5513894471760287
0.560206026899607
0.5517918429339347
0.557513322495323
0.5547580259198018
0.5616218788842606
0.5547887558666155
0.5579380382960423
0.5600633425492699
0.5643254123099645
0.5653536696263126
0.5769590608308592
0.5799010850729607
0.5882510333008212
0.5883597017613701
0.5927338253900671
0.5843401878898941
0.5833612818028607
0.5715693849390934
0.5643113777227401
0.5641609748987285
0.561791347878631
0.5657755480125413
0.5616814370002092
0.5694729374705222
0.561436638863532
0.5811758916512275
0.5632545380940698
0.5531817521623634
0.5263829249489278
0.7181952315386372
1.0
1.0
0.9051139953151394
0.4731156619965886
0.5214136448959061
0.5073140767978181
0.5368423175342059
0.5768130932916893
0.5874144603527898
0.5866836050499458
0.5901104995875739
0.5862676181996309
0.5889389023634015
0.5866728896355188
0.5947619308026095
0.593765444673445
0.6003143192404913
0.6003628709924621
0.6080669590266178
0.6037397337083661
0.6108359621621251
0.602104122834907
0.6195801668546584
0.6140661008371453
0.6279613653923424
0.6202928313106206
0.642239270430949
0.6357409809278455
0.6607897517226861
0.6562056477185931
0.6761258667529424
0.6825170704039788
0.7058403049518077
0.7156182968859264
0.745163865606133
0.7663235357265762
0.7952175752612723
0.8187178589592795
0.8458084771816733
0.8598397800006647
0.8790635372719346
0.8972659360525602
0.9031365664680451
0.8896372614344836
0.8494121859925888
0.8081989781186802
0.7449476887726174
0.6946437000160641
0.6358042263335691
0.6024591923114595
0.5659011777004853
0.5535935576854334
0.5285531222555815
0.528886169650566
0.5173610880588191
0.5152387956746308
0.5068105470456408
0.5121971366006157
0.5063650109412637
0.5118378150460867
0.5044190987353678
0.5084371851001639
0.5042081082573102
0.5041125580967388
0.5015676059662265
0.49892163020594243
0.5062682155700734
0.5013952696659835
0.5058333857968716
0.49543078102918736
0.5034097549035987
0.4956066390412016
0.505207210096512
0.49409645777283917
0.49950158557307844
0.4840001710244552
0.49659931282447733
0.4866461147098208
0.49342976753989454
0.48358081549596654
0.49286137211542336
0.48023921233483413
0.4878405056157834
0.4791091820980403
0.4849699759915446
0.48095937666353905
0.48584364022039817
0.48027961068076114
0.4793766609010263
0.47906975513896805
0.47576614962621433
0.47757498754552447
0.4756660737103246
0.47829347950120527
0.47355666382115424
0.4763723125287077
0.4686650452065771
0.47839281067513256
0.4715300181595639
0.478583900788319
0.4685509250162731
0.4781928292623478
0.47032296660014544
0.4798307111587469
0.4730131255909977
0.4798902900769659
0.47553018270306635
0.48279375444206174
0.478504823123321
0.4935139421551825
0.4961887874150451
0.5025889393443207
0.5076322752514582
0.5012249710609349
0.5070614287590753
0.494755109644642
0.49087477976606253
0.4753272076411698
0.48257899101297974
0.4709080700214912
0.4848349325131309
0.4708870268135664
0.48772946837538217
0.47757004533429476
0.49789795447931207
0.46291601657550885
0.453218183152604
0.49472454252157894
0.866288232047119
1.0
1.0
0.6020626250512978
0.3728349408782695
0.4323232119482906
0.4161945697837264
0.47624995875354587
0.48256167855355014
0.4898831090706112
0.48446579800916645
0.4934297154266242
0.48397595825856865
0.4979810168880773
0.49342716807128556
0.501358487323984
0.4931617427315964
0.5058783307576734
0.4955878705206949
0.5089674208588415
0.500654867817066
0.5168442534615096
0.5089100010735562
0.524511440930337
0.5134270538713767
0.5333277321593407
0.5252607454850187
0.5483707788858965
0.5423960644873907
0.5667900712058158
0.570137410144616
0.5930952992058629
0.5999020385606852
0.6257744352424794
0.6496802257829536
0.6808432639612884
0.7135220456480822
0.7458155316711346
0.7778481984457458
0.8069744654498365
0.8365046932533406
0.8478281696683048
0.8394586149602065
0.7891163092715325
0.7378066025263104
0.6586344052686519
0.603081287002914
0.5381849325203257
0.5056458285843932
0.47162351188931384
0.45912572010736785
0.43882624212364424
0.4360894071082881
0.42732920490631326
0.4303295969948465
0.42122706906511276
0.42555912484442676
0.4206884623137389
0.42289124184394444
0.4216845308907689
0.42203634857316297
0.42525020174246625
0.42419236962442336
0.4270196285808267
0.4261255313399347
0.4343987555085584
0.4253636098779978
0.4339650641781552
0.428607687024915
0.4363920668347749
0.4229268833702317
0.4338017268092066
0.42018069802256675
0.4340529243637808
0.4184808371743111
0.4291203958029953
0.4203628523140116
0.4324993164220074
0.41892947591353513
0.4296517983371535
0.42270936610119814
0.43027644347223715
0.4239427416172977
0.4310809128701053
0.42764120443737685
0.4314346537578218
0.4304306604550325
0.43692600724788627
0.43669937766851386
0.4373421317017602
0.4407654938270055
0.43656291837572336
0.4428017229528486
0.43691033776643257
0.44407892313454755
0.44342720351619713
0.4547434376471621
0.44847012327333086
0.46362390186330255
0.45399609544974373
0.4641604581294091
0.4544146152172459
0.4639175928032363
0.45608107973436535
0.4613504445621272
0.4605905770017268
0.4701052224114951
0.46936264975178454
0.4733735060412666
0.47956653444565306
0.4878279509481168
0.49920833422738164
0.49955932191104574
0.5132967287843356
0.50635609804624
0.5152781013530615
0.49839447255178015
0.49489383590018976
0.4810662643124963
0.4979277856953342
0.4843079226700568
0.5069231429872076
0.4847181136379577
0.5081137737235915
0.49785436623889
0.5231656460994145
0.49247681532639564
0.48563786734721087
0.4868850325991277
0.7559917107335694
1.0
1.0
0.9222502149882826
0.4201603783380749
0.46576551080780026
0.45077726679249996
0.5007882470572402
0.5304848230926353
0.5421745652711565
0.5300732022160894
0.5474640808526798
0.5395363850170966
0.5545800678808935
0.5434962763959692
0.5589093961335285
0.5462977082619651
0.5678940593068478
0.5611845986869195
0.57559365974052
0.5675929879225403
0.5828166082385421
0.5729487751040795
0.589696491248336
0.5850135636766798
0.5991483210192887
0.5934806336262655
0.6146743850749525
0.6149725927915349
0.6315034412451791
0.6378339090413457
0.655483065260636
0.6642325028562116
0.6805862347183311
0.7025476755226813
0.725720914990265
0.7529967207140531
0.7760613771137196
0.807576213050593
0.8339823744589545
0.864368530090878
0.8864480492192343
0.9166459999508536
0.9269733273776464
0.9445153518150537
0.9141982456434988
0.876292715464945
0.8100260712504236
0.7483898463500825
0.674312349934074
0.6278577165735938
0.5850792721358659
0.5626217023170094
0.5335219202670113
0.5277879723630602
0.5233411025875617
0.5220612535990378
0.512808619295553
0.5091889405043725
0.5137401619733742
0.5155507012408325
0.5183579084942066
0.5104671433436131
0.5188579431907335
0.5109692384900877
0.5195700313069814
0.5106767992995269
0.521247841852868
0.5089555626430988
0.5177687743367313
0.5083962951554482
0.5187108350312252
0.5093139691158023
0.5172281827712464
0.5044755819227931
0.515334793591781
0.5030004757629206
0.5104486884882917
0.5038262761899523
0.5063361195130178
0.5039789475010705
0.5017810878804687
0.5014819997222524
0.49984970581300237
0.50187950487914
0.49776166149451556
0.500112852403267
0.49792057273401336
0.5035086944630609
0.49471043533387205
0.501601883865008
0.4937021729001544
0.50757830823125
0.4919902235953562
0.5043394588779895
0.49897640644722374
0.504474377220275
0.49831293525488335
0.5054354448445683
0.49709090952360696
0.50504886647113
0.4962824919367156
0.5054962825403199
0.5009708532489481
0.5060640551901776
0.5035160222176979
0.5052028324052168
0.5067174810877381
0.5049331400378463
0.508775535890938
0.5027968403423917
0.5090526705449079
0.49907408538947695
0.5142512997675392
0.5073726741512946
0.522990919577332
0.5272408881664653
0.5373049283841631
0.5297159583375964
0.5406176097994805
0.5280785191821937
0.5247666175211927
0.5038157163995487
0.5136896822712297
0.5050403559795151
0.5129306246991134
0.503918559962852
0.5130879187697206
0.507172497661507
0.5115571669237473
0.5129487960043021
0.4968534486793099
0.465401334452504
0.5671435348699345
1.0
1.0
1.0
0.4540229295197628
0.43658795735539685
0.4360588295710552
0.4603286708229616
0.5027825649694936
0.5250793131061207
0.5154203065465156
0.5257427419544973
0.5202615678874446
0.5306169769019004
0.5266693567600659
0.5354513015239519
0.5251588180255553
0.5370113589277243
0.5311522101084234
0.5419542721695235
0.53753092855508
0.5431308984078094
0.5450166232784459
0.550217856274113
0.5513963425803362
0.5596542312132865
0.5676818417378866
0.5731211795108198
0.5810100382655583
0.589333002368519
0.6052573451138056
0.6116829570473282
0.6371795684164623
0.6456231435088501
0.6801612183923244
0.687150356824748
0.7218688728842438
0.741993168096798
0.7837133927953002
0.8018495750628448
0.8333379400197243
0.8452016094443578
0.8666615294150048
0.8564778431267079
0.8340751827598751
0.7724392800158162
0.7111049465993771
0.6457976942013438
0.5864968399634048
0.534333104508063
0.5025452490827569
0.4826738428360738
0.46717722914389703
0.4619606803362196
0.4522583756517964
0.453263751775702
0.44028935110735884
0.44769312721959065
0.4399963937765284
0.44943082849054106
0.4361040900159976
0.44817809067683967
0.4357125548659099
0.4464022905111138
0.4348033864719444
0.44396995319532573
0.43318724037245476
0.44276878853710927
0.43665623530456565
0.4388874903473061
0.4334091006312001
0.44048578273327427
0.43339570237773717
0.4330421626125969
0.43319488994284994
0.42868327840259923
0.4307285615668276
0.4205472459574108
0.4299790727327718
0.42331073802011254
0.4289113510598502
0.4213614613296941
0.42855527180007263
0.4147630327848143
0.4228039784372072
0.41287957154442567
0.42181699995673466
0.4096557178676675
0.41892890520599363
0.4118954272574403
0.42508859161087786
0.4186149329544045
0.42228296253792114
0.41412034900578015
0.4226774339363361
0.4142547886309874
0.42344500532881924
0.41732720235697496
0.4272977874120826
0.43069264495937887
0.43708309579255217
0.4451571132916755
0.446564094690512
0.4445780063919723
0.43761122626363136
0.4319116677633762
0.41777671222611434
0.4205569606306045
0.41470796612600463
0.4246104245728922
0.4131112022342057
0.4185013286793719
0.4132932896744911
0.426785753286656
0.4160954580065349
0.3909259060096697
0.40926166351768656
0.7920576202813809
1.0
0.7925193662951144
0.3289227578241162
0.38296683311522983
0.38706222029662596
0.4456962833419576
0.41962136420329915
0.4415124340490813
0.43453871263512467
0.44146263597572055
0.4406924836998017
0.44351916166232275
0.4439721297463433
0.44500248168873463
0.4504576264659682
0.4538677914140047
0.46077669507241215
0.46026241052649697
0.47320254597404154
0.4751698622801898
0.48369505425804943
0.4893103866762868
0.5028742838755819
0.5111760045702851
0.5297046969279725
0.5404190949274168
0.5611432680353047
0.5800871275224331
0.607264164918722
0.6306324236546115
0.6636221813013636
0.6947678715247063
0.7202118629089258
0.7502777512248103
0.7714199400877473
0.7919490399228739
0.7827698344883941
0.7609246750947565
0.698228093615411
0.6424066839676454
0.5640772205367213
0.5151953956353407
0.4555281906482813
0.4331366900968335
0.4018575214471326
0.39774915247586856
0.3764594997872312
0.38179278070698036
0.36552601640260934
0.3728433832629031
0.3623561827776608
0.37082605681056685
0.36231456851187016
0.36975548089735855
0.3671375326882164
0.37250657821715255
0.3701668560722597
0.3733038569254076
0.37831641587945714
0.3809927734918656
0.37888454718730025
0.3757814626474803
0.3826656960619303
0.37569401537889063
0.3798174888352911
0.3732139400740411
0.3791473897774337
0.37165964227144854
0.3731321026444244
0.3695398876158436
0.37381617073549556
0.36806820714367816
0.3750270131521605
0.36484187309295224
0.3688608900516231
0.3633273180588549
0.36593963713529953
0.3596226967876915
0.36697445156266917
0.36511376871839685
0.36258080002984594
0.36509011922133994
0.3606902077174839
0.362387604293346
0.3596950152224183
0.3669669674746822
0.36056061163995856
0.3703195273944905
0.3600887425300732
0.37161315457051564
0.3610164521597587
0.369783654919982
0.3637443468989713
0.3748386096724969
0.3614997530942332
0.3771637440380197
0.3678566987377172
0.3765390645899835
0.37089081602795754
0.38164500909639515
0.3759911545882476
0.39576164064398184
0.393012735849773
0.40465483728735024
0.4063639611535761
0.4061350201622817
0.4019632601093369
0.40097197567801135
0.3903697373353516
0.38320498772679484
0.38502567113931646
0.3857416663198439
0.3882066688382813
0.3850498339027827
0.3969780326658628
0.3908124847160964
0.4015055773084649
0.39550783984164073
0.38069376557079593
0.36557239665929886
0.5001710637329676
0.8871010035756999
1.0
1.0
0.4378948638441966
0.3185896537136742
0.35984043468226884
0.3497308342311477
0.4013692460870809
0.4122138679564123
0.4165901418123178
0.41555394499813386
0.4225163404838012
0.42595075773293445
0.4253940989298706
0.4294213958588142
0.4322225861579643
0.4374128832154411
0.43282002375441586
0.44298920296680455
0.43688907120573994
0.44592823208528287
0.44440355130544196
0.45556786939166
0.449358682508371
0.4614306357633412
0.45357163233344605
0.4683741237511733
0.4643855548570944
0.4839870028380271
0.48310504718396635
0.4986054345443168
0.5043195172827307
0.5192224833099006
0.5303334860441249
0.5454135227555481
0.5576877761354404
0.5779976055195652
0.6056739014090434
0.628463234849119
0.6571517408454801
0.6808419573781179
0.7113654893945297
0.7322379401919461
0.7621712049842033
0.7736459411004236
0.7925715593279048
0.7833814411371802
0.7681400025844292
0.7164591148008169
0.6727583712995201
0.6044670609745888
0.5619336991056129
0.5035004780952984
0.473319482347886
0.44252537945714376
0.4303427632264407
0.4131211648280213
0.4093891990331734
0.40012072558398015
0.3968890119795484
0.39568434004276004
0.3916988246673996
0.3949419142011082
0.39235162093497655
0.39644606457842224
0.3923552767628201
0.4008522381443055
0.3931253970057214
0.40861458556559616
0.39688594102184754
0.4052531246547944
0.39942808861616064
0.4114364396537084
0.3962460102747594
0.4109394531599767
0.40159805355842265
0.4100608614609829
0.4019772809551066
0.4114611329194144
0.40040547880164246
0.4071309169209322
0.4002706233621168
0.40497045476323484
0.4007756312006757
0.4117988539963406
0.4081011871359027
0.4101158213688848
0.4105739561348414
0.4088790869557635
0.41535576922359174
0.41424462933749967
0.42168011906433545
0.4152802540425343
0.4251834783870777
0.4189969231725545
0.42749793599108765
0.42123992392682064
0.43387280170399534
0.4219954301594531
0.43478441801009343
0.42570999085331335
0.4395279436161784
0.4360807285955001
0.4453634313880839
0.43909640008996575
0.4469723134361809
0.4411959696291916
0.4480098623525167
0.4458123438752784
0.45262076121003236
0.4516635189435701
0.4544090081868883
0.46326585368630796
0.45817698025779413
0.4632255469000178
0.4577437070903262
0.4718903274109877
0.46585292146414464
0.47926887993847994
0.46951930973220113
0.48530979553870585
0.48237026295721563
0.4955075089739278
0.49976676389510677
0.5163122671960512
0.5128594235254303
0.5219529349614989
0.5108325200963904
0.5239859022188808
0.5107102785864274
0.512264933124732
0.4985125801661702
0.5126415078761439
0.5043246201440316
0.5162785120040494
0.5165465660861914
0.5221608574968879
0.5236451922123878
0.5349595961337815
0.5169522753488326
0.4971048219043014
0.5359283380263421
0.893767805421383
1.0
1.0
0.5964785168632327
0.4460180489710339
0.5028278144718957
0.48933204880316666
0.557182353146258
0.5589269438569364
0.5762083775340339
0.5690782805170376
0.5874447028884956
0.5767194854173701
0.597113480356829
0.5873326452303064
0.6009066063973361
0.5966779945344547
0.6073049969020232
0.6047930307865872
0.6142195273341293
0.6181201046985751
0.6195073325951056
0.6260765774308228
0.627524224974272
0.6324857357855402
0.636292209255463
0.6527524572958676
0.6532771412308962
0.6707729993545014
0.6707417037781374
0.694781537899541
0.6972526888535414
0.7210046079858461
0.7323316587535404
0.7590163986469914
0.7752016837649339
0.8118373985720471
0.829000035073675
0.8674644639247895
0.8785369998265791
0.9060388611264351
0.9249790934891788
0.9454737398867582
0.9579907794503801
0.9563413179731042
0.9329548831289374
0.8914674898234708
0.8456021104162236
0.7834846459190482
0.7346821360545762
0.6713401718090755
0.6420676245613844
0.6100754408854677
0.6032898567439531
0.5857042976798965
0.590192616585499
0.5724500648468601
0.5788834893971793
0.5672790925559756
0.5751077840125196
0.5688073450559763
0.5751171855729376
0.5719877268178124
0.5741556793837763
0.5678753648057755
0.5730706196566244
0.5709345033125353
0.5696925160012629
0.5679832830399318
0.5705321124444428
0.5714288659957315
0.5723928430428168
0.5712420536333418
0.5652489670559273
0.5684694345679977
0.5611212150503553
0.5696418702405392
0.5604361643418712
0.5672518314740528
0.5593022884242486
0.567389855650964
0.5532697317434254
0.5624884139605283
0.5513220300768333
0.5632326598579668
0.5493770501487186
0.5618662317525035
0.5497750104177725
0.5582828424333197
0.5504666323412928
0.556536084501553
0.5504749195717286
0.5560277729296974
0.5534286359943683
0.548873868285652
0.549035171676035
0.5496930856919126
0.5491256294391164
0.5466131142980779
0.5481204277269006
0.5426012683641419
0.5506373084095026
0.547822875406038
0.5525212040185904
0.5461013739624555
0.5508034901567824
0.5436696328535129
0.5518443550289314
0.544866019472
0.5512587346601007
0.5472480475770098
0.5526870067418841
0.5513338968696525
0.5616360954306441
0.5630353259716518
0.5673293404951244
0.5748708943515954
0.5705593181070437
0.5684472617721861
0.5549430142309743
0.550045014384555
0.5379044833909291
0.5534887734640562
0.5447621348893228
0.5541870767855321
0.5426843767775004
0.559558446543793
0.5414004734801339
0.5318361350286578
0.5074161233648364
0.7782109586543482
1.0
1.0
0.6480799287497107
0.4504487457047855
0.49603564250675003
0.49901376352233706
0.5604345583804047
0.5599431677381087
0.5656865827211155
0.565381800100001
0.5708670881376906
0.5696039620910389
0.570717610237879
0.5697526749771652
0.5762459781791074
0.5746048559216801
0.582794996030642
0.5756866691291527
0.5871776458682467
0.5815834025436948
0.5967713392793784
0.59142253855466
0.6083296563621483
0.6050961349428474
0.625765334960797
0.6220095209292902
0.6436943197014904
0.6425057770798536
0.6698159445247868
0.6727874875684737
0.7025911081286054
0.7104983148880327
0.7437318191017412
0.7561671648269135
0.7901746908328067
0.8017278222687135
0.8319344911041388
0.8506418178798445
0.8738815898035185
0.8821319810916453
0.8806421440136265
0.8565625315457736
0.8070216630175493
0.7585289530027485
0.6913064370520938
0.6374969332089119
0.5800532389472906
0.5457418731649488
0.511659175285129
0.5040928922407507
0.4799829556339744
0.47934803717577507
0.4650094720790635
0.4670016489523091
0.45779697893223004
0.4590673692970159
0.45381727151011064
0.4603184203633788
0.45105492180838913
0.4622413581535715
0.4552525674975304
0.45965435599261817
0.45777788490428745
0.4514173751567256
0.4509999498728767
0.44591018915833674
0.446979168366319
0.4424016667312906
0.4460005134653847
0.43639712411309367
0.4410354472487178
0.4307259464910647
0.43546840253371705
0.42452364528358616
0.4325055120427927
0.42005719995530433
0.42706008733784573
0.4167623770845864
0.4252659183908539
0.4079173245228228
0.41662453071899214
0.41369976512948414
0.4157813454964063
0.4073530490711378
0.41246352551529125
0.4042937401263432
0.40763565587920175
0.4065461029037924
0.4041660490266034
0.4047369189517959
0.40316494813064346
0.40874834507501684
0.40256191316331824
0.4163001825114684
0.4154107878147264
0.42693395449002197
0.4232915491188086
0.4397392233186966
0.42169985525443227
0.4258552707560884
0.40331523063790026
0.4036431595554733
0.38820084554179735
0.4012291659801889
0.38603102510688414
0.3994836966743419
0.3837829697760913
0.40148585250220015
0.3885520934279101
0.40637313506674
0.3815269428653078
0.374182868706486
0.3703009301679126
0.6590070688778777
1.0
1.0
0.6028946678159659
0.2806961289403063
0.3514806972289794
0.32298862141337936
0.37853864459729225
0.39347691018956826
0.41680779156237746
0.40385019537071837
0.42133875196284165
0.40327247417435785
0.4226547917778422
0.4057384058568759
0.4210225031840612
0.41092722165104767
0.42601127864098326
0.4150188588728446
0.4311304161368996
0.4232328102854524
0.43740207544277404
0.43222523873547736
0.4441867468369317
0.4403169028504645
0.45251131089781216
0.4558144876437885
0.46563259212504915
0.47228567981113256
0.4738361441088951
0.49136092311249185
0.5002448486000697
0.5159807501628693
0.5266489405275772
0.5485539104902715
0.5651966028418923
0.599254141010149
0.6189344667656785
0.6538443362568757
0.6757750931695207
0.7060422548268283
0.7215545895684075
0.7517037355195095
0.7623234516993718
0.7506262089519743
0.7049172095790912
0.6544752572411705
0.5836909641681107
0.5171238290862548
0.4655619423474754
0.4230047586002509
0.39868653833885254
0.37882175857481176
0.37147369387182905
0.3607854796751092
0.36045388678050283
0.34816475097486593
0.35712064779342745
0.3449856442099903
0.3548834678319004
0.34857063335311117
0.3563612456182611
0.3512958240160149
0.36048126437055067
0.3486560244056921
0.3565799838399272
0.3506762485070748
0.3609897553808537
0.35621584696614106
0.36332810516774705
0.3571192272525306
0.3577257336043764
0.35142558425027776
0.3568244904191896
0.34994198958541406
0.352730913191876
0.3487188051237201
0.347560535833533
0.34712692220028857
0.3442750867069419
0.3473783573912935
0.3455043838173963
0.35163391625498214
0.3429091939523166
0.3503832417020557
0.3437433115701415
0.35168964574669614
0.34248656016585444
0.35381188267775643
0.3455535300772459
0.3508412198991636
0.34350182280218167
0.3536341752345092
0.34533497473673147
0.35310459298889507
0.3445245068568064
0.34910227384075376
0.345864872235245
0.353735958065169
0.3502257288698999
0.3547223061354744
0.35575149096075176
0.3589012136308992
0.36089908535693394
0.3652091901121272
0.3704969760050033
0.3793692125721214
0.3853926272298763
0.3886298324132949
0.3929053479304917
0.3815395945971699
0.38820379922801856
0.3680589678120133
0.36809443009991344
0.3639612271692617
0.3788606080239771
0.36960746514107695
0.3799230923528906
0.3762875343545981
0.3816066337499445
0.38157592754960007
0.3808741895465438
0.36193195471742123
0.35612529449626484
0.5235154917681448
0.9172330998002142
1.0
0.811072111951247
0.3163777033899396
0.3369409680352266
0.33014706977019437
0.358352376508453
0.3921407941540715
0.396946943106063
0.39821184304006274
0.3977762721404873
0.40460713377386226
0.3980714126606505
0.4059486117455635
0.40646891950687725
0.4140944107792948
0.4094913230918105
0.4184565951765216
0.41743609358553346
0.42319898808679624
0.4208503965089254
0.42694254863336356
0.43239414441402013
0.4348262557784607
0.43864994077454844
0.4469032164071943
0.4523743745125933
0.4585685330719387
0.47107834035408186
0.476428049373847
0.49280244726291667
0.501189694691193
0.5256543993514368
0.5353341565671943
0.5638200000396214
0.577619989745346
0.6161046935942516
0.6378245689081188
0.6740820946909449
0.6947255978621287
0.7270179016392989
0.7378248786431602
0.7586979576094386
0.7377236596337058
0.70785636938871
0.6445398202642104
0.584268460554743
0.5262235607723669
0.4837953865200668
0.4479289171182403
0.4266701429978048
0.4097007121217164
0.3984316029502465
0.397130163009748
0.3935097750747848
0.39337502561640114
0.3847204509721709
0.383769303335672
0.38758543519613803
0.39219435019758253
0.38791683148050204
0.3950792673302699
0.38505776800347136
0.3961457117622187
0.39022845966881237
0.3984516855988107
0.3895361752695473
0.4000941212727224
0.39382103442796074
0.4022298264365321
0.39567214029891884
0.40160315103810873
0.40025713914484945
0.4009580423859182
0.3993642786013162
0.39973964308500165
0.4023751076332025
0.4042416217255713
0.4041333575973738
0.3953139541144749
0.40531920102797026
0.3999185699645362
0.4074312068203536
0.40216944606472815
0.40946009729850497
0.4027737852833332
0.41014787202962644
0.40217418719825415
0.4134332832351754
0.40251738016494143
0.411324079387431
0.4041411169391627
0.4113151105211994
0.40581386255734875
0.4138324828032925
0.41087414204420625
0.4181489551738945
0.4181048514491975
0.4190555436056395
0.41890679863670144
0.4182681719410798
0.42094576232567527
0.42248728416434495
0.4246808274788414
0.4205638352953384
0.4252925948863542
0.42338510679279606
0.43182310192869544
0.42904003586659245
0.435461062639228
0.43095478690491895
0.43671736232749064
0.4300063720151096
0.4411807203238802
0.43282724689011626
0.44388735539351243
0.44207455000347384
0.45934179928462526
0.45970710947136206
0.46837429914460954
0.45213053998931796
0.45774419793367843
0.4405092935685144
0.44821931324981934
0.445682766337353
0.45121749820104445
0.45024485732151653
0.4574143060424123
0.45920096951589695
0.448552140152474
0.4330984765854547
0.6644299799858098
1.0
1.0
0.5961506688654609
0.3727858189371608
0.43355112562324977
0.4204439195026902
0.4854446640107307
0.4669283711383073
0.4860431043303504
0.46869523118643325
0.49193527588479846
0.4796686846130231
0.4926611211705455
0.4839942334044987
0.49520691219069446
0.489731580322531
0.5022417204052088
0.49884900573691554
0.5063486090246189
0.507785062362251
0.5119017999145312
0.517650108016181
0.5220734652537471
0.5250343914724349
0.5317312401459733
0.542062442747728
0.5422186567484094
0.5613963501204353
0.5671092654207723
0.5856744603245828
0.5960107535226701
0.6184839864180546
0.6319658831889462
0.6643611554867477
0.6837790858041516
0.7153304757486486
0.7358689112461468
0.7635848174169622
0.7872005998594517
0.8177664494878858
0.8232130655276585
0.8227688806381703
0.7966437613624798
0.7499929093927166
0.6920876839842209
0.6335978276747416
0.5896711010047093
0.5441818237018899
0.5229707494303085
0.49683967324843153
0.48909544763839674
0.4766366681119257
0.48016129199484964
0.469034160977673
0.47838219762988715
0.4673844681366566
0.47623471542667195
0.4671634010283416
0.47962097827693284
0.46617524355805057
0.4754028506406967
0.4656217715753603
0.4773516061037023
0.4645537583669482
0.47498973097819325
0.47190285490585404
0.48012230035244263
0.4696105947089114
0.4770049230442739
0.4752402121157127
0.47516653057890634
0.4745479548304169
0.4735790020774447
0.4735417161314855
0.47267653441696833
0.47212450601573164
0.46829535164972
0.47468403908093376
0.4701611531450812
0.47552906270401374
0.4669387004170164
0.47304082841545403
0.4679991660675184
0.4738162523311506
0.4703470157649394
0.4760246813542787
0.47215153070953814
0.4791363115472005
0.4730154823819667
0.473524215833926
0.4746305244655673
0.474671906461772
0.4761788230797612
0.47729243207293237
0.48144814590178575
0.4748013365859074
0.4826524953083595
0.47946336701264325
0.48607081214763914
0.4806347524068463
0.4876807743687637
0.47743589913182527
0.4908970598451841
0.4801871558790346
0.49317517052325643
0.4853163593675588
0.4931334910346597
0.4879206185363367
0.5002138533794805
0.4893307557491776
0.5058696075873391
0.49225468778918957
0.5019881957790364
0.4935419272412531
0.506574518065943
0.5028689388124824
0.5135462464245681
0.5123369805858258
0.5280765164587378
0.5270701577350649
0.5257653499657946
0.5224424291028947
0.513473781659033
0.5052236250865526
0.5080076227253356
0.5089737018842571
0.5093223233045706
0.5124718885812102
0.5150606993536777
0.5187591343919806
0.5246803102260053
0.5212603708498322
0.49957261816411425
0.5008251017624139
0.7243332779737838
1.0
1.0
0.8136236218421014
0.43789144050093826
0.4915514189008201
0.4615776573056169
0.5009486637051438
0.5205038132184377
0.5463605953130296
0.538067075757546
0.5474990392078609
0.5414133175750754
0.5480473480767043
0.5494283389959047
0.5503713595722475
0.5531290752011562
0.553275191775257
0.5615121830789395
0.5543323038253591
0.5645643922372339
0.5635127109561783
0.5732796927613739
0.5696145966084332
0.578508418584877
0.5774335968563198
0.5859108064956156
0.5840074572814091
0.5984142402711448
0.5999112667495599
0.6146261492803762
0.6210357385938339
0.6377309776470476
0.6471163693831272
0.6620823060955138
0.6786702103083482
0.6998881927679571
0.7247627716909101
0.7458954377363061
0.7764062909031664
0.7945390896560232
0.8261051156099193
0.8407238592280379
0.8683796689525305
0.867942092904572
0.8694395638033934
0.8291406198360516
0.7823781585421729
0.7146841905724725
0.6670991341744121
0.6077776813714394
0.5830320212746469
0.5505325577483389
0.5415938496908241
0.5265301140824807
0.5243554925078187
0.5130979082463545
0.5150840822193644
0.5106971011551745
0.5109173703256185
0.5117072293396812
0.5092044468277596
0.5115396808785786
0.5087851970161872
0.5131438809107676
0.5095321857214098
0.5158682527698442
0.5104045526445558
0.5196254947310328
0.5052433727638314
0.5174448053056285
0.509457164718258
0.5166189939562444
0.510780085348638
0.5165119243379461
0.5068164189075063
0.514542985903846
0.5048382601770577
0.5127840116240879
0.5045805340027459
0.5101110048516351
0.5062535199591893
0.5102784169357454
0.5063124604326108
0.5064530430876466
0.5031529784017892
0.5024020813391753
0.5013781309124951
0.5009889945106061
0.5039540114804921
0.5010927263625249
0.5040678881743536
0.49857374330780174
0.50073245021949
0.5007001443160246
0.5050517528148281
0.4984270071880513
0.5042194708399494
0.4964399480691541
0.506827535177725
0.4992565928370606
0.5078183347258557
0.5046298651958636
0.515124697416729
0.5171171879043455
0.5249252500683734
0.5225360821870119
0.5339808231094476
0.5318621963712
0.5298060463628482
0.5247555794011922
0.5129112816311274
0.5076985956513356
0.5004153857009868
0.5075615749118016
0.5017384306173407
0.513397866695429
0.50618479657875
0.5205408036013672
0.5135651634948991
0.5250578942924032
0.4948762320341603
0.4897825207225483
0.5131004295240641
0.7983253961433566
1.0
1.0
0.6795582332085306
0.42515147551798116
0.4767000537326922
0.4567694256476577
0.49759782377219774
0.5213120362932104
0.5338407146150667
0.527734928259699
0.537585972905413
0.5293447154788379
0.5392973543711963
0.5364830670258609
0.5462412379156831
0.5403475851576631
0.5520216700993364
0.5433941261849895
0.5558100349858671
0.5500053753562006
0.5632532863716612
0.5543243146574625
0.569812480394831
0.5592065832648239
0.5779498314057756
0.5711067026449603
0.5872216936141312
0.5883696632521451
0.5994342478758877
0.6004176230019752
0.6180327993706699
0.6240401581059242
0.6405818463829045
0.6492790183020773
0.6696772520951968
0.6882766571421908
0.7093818752943724
0.7330884682489596
0.7601820856276115
0.7846063927024385
0.8093698614124041
0.829583827910394
0.8486392895810004
0.8744348361918414
0.8745035463290669
0.8694611138135727
0.832692533881757
0.7916453516804317
0.7279396372379544
0.6798341775395951
0.6232264830354551
0.5933785660550588
0.5565037113773799
0.5443505818045687
0.5214644483309268
0.5218549118247418
0.5060346811561062
0.504469608715311
0.49992670426342023
0.49696024591671445
0.49583693981393095
0.4951892140200259
0.498323428013542
0.49797170735566043
0.5000378883348906
0.49821419968076847
0.5048399416283417
0.49825185770200786
0.506459696681798
0.5004112706289217
0.5111090072040724
0.5034300625046321
0.5124922978392364
0.5047245175524018
0.5167720787101636
0.5034374399894312
0.5115066545587473
0.49989846409465455
0.5114739356034351
0.4966415050074565
0.5075375441003601
0.4974649128095156
0.5017063483473592
0.49533418677196617
0.5027618939310552
0.49880536449012824
0.5002009068172175
0.49752734635683976
0.49829376280402826
0.4995926475435234
0.5005275572030041
0.5029493127525745
0.49844824971779333
0.5022923106753887
0.49817005017130905
0.5021089548705101
0.49559474689737265
0.502248751138903
0.4948425860751451
0.5056254109131324
0.49925457417808133
0.5009449818650447
0.4976689920933198
0.5045897456583825
0.4986244596287702
0.502898632313716
0.5054856489689661
0.5123954809823222
0.5171790579516243
0.5257121074293161
0.5299720950590794
0.5370978053077744
0.5374286028436439
0.528391907172317
0.5302125410305911
0.5104763667418515
0.5123551710892584
0.5056627513683278
0.5169247289835288
0.5105577569840409
0.5214703247289453
0.5093799885045022
0.5312593190752852
0.5151323644827388
0.5115735083249642
0.48149566498450086
0.6329186783564544
1.0
1.0
0.7968329629610265
0.44316213656054915
0.4920498990999226
0.4857450110981702
0.538761290880229
0.539144225868193
0.5411249744597089
0.5423149650369552
0.5506814566600929
0.5459449392867567
0.5542828907335287
0.5547040784608899
0.5631385961209895
0.5597333019230597
0.5674439209811764
0.5617241125052026
0.5713982944040266
0.5667396673512739
0.5824309836602161
0.5782159467790213
0.5937663081555656
0.5884624598975244
0.6075864885078552
0.6050553959135501
0.6233524000013568
0.6259850748029113
0.6460264516908881
0.6501794208840612
0.6757817395970283
0.6894199761435376
0.7117909755974059
0.7347968856237459
0.7626739862607712
0.7909814360146618
0.8152753676326985
0.838249850452683
0.8559486771546128
0.8785100833431025
0.8780653334468284
0.867571779027893
0.822081328443969
0.7764327367219209
0.7113321595008433
0.6658643272789304
0.6144323552272632
0.5890427019075505
0.5541321552209963
0.5431770919502261
0.5247183853638439
0.5220680757541258
0.5085344470598767
0.5171970131156678
0.508226616119904
0.5114557146215473
0.5082327899362096
0.5106493654826453
0.5116191349330842
0.5083363555614858
0.5108001002819442
0.5103941746893187
0.5112284295908767
0.5052453484173515
0.5117050575018429
0.5076136726118421
0.5109661519043485
0.5039012097981093
0.5112758625509523
0.5012547148995188
0.5132359117894718
0.5015276414927656
0.5077554543843621
0.494849928556859
0.5064272460034897
0.4997470593249244
0.5066495353941154
0.4972249897982931
0.50661151240584
0.49569983242676513
0.5026929654673176
0.4978898654102052
0.5033608813949226
0.49982813587117414
0.5000965090949514
0.5007076649007708
0.49678627519205965
0.5012336591916051
0.49804038501361125
0.5032885103926061
0.497821391895023
0.506270469743346
0.49948326291521983
0.5066611479073797
0.49720323479944917
0.5083915013389158
0.4964762422169432
0.5086625947912335
0.5004844805231992
0.5120170460164938
0.5048389301006668
0.5131766709174783
0.5019523092792946
0.5133966505674421
0.5061945321078597
0.5120185584786878
0.5075547287163285
0.5132905960448519
0.5103122034481488
0.5105323508446687
0.510436567774202
0.5142224867818311
0.514274323249962
0.5164287222080453
0.5263793527024901
0.5309147210540028
0.5391165198615471
0.5408066197986188
0.5425783748355667
0.5361123507598488
0.5324875399589885
0.5153695383783281
0.5224645611940206
0.5158925590492508
0.5203032764980737
0.5193434379584125
0.5264064318021233
0.5273597126515666
0.5365276223676415
0.5191459054759988
0.4979248904417083
0.6282934780574909
1.0
1.0
1.0
0.4691043947215589
0.47851017677208796
0.483510402953052
0.5098655267022464
0.5435921427596974
0.5450745724829258
0.549833867161409
0.5456618019926551
0.5560004028557854
0.5515953551167985
0.561214866663002
0.5549911828412282
0.5673760574042158
0.5617415823766712
0.5728495390555206
0.5649507080558068
0.5750134573076707
0.5691006561358604
0.5801922763328689
0.579420527302626
0.5894263671766898
0.5875275606116216
0.5967517018481667
0.6021500008408006
0.6106368455439266
0.6187128801327094
0.6285733351513672
0.6406274453607621
0.6499148914529784
0.6669782029028821
0.6827672971824499
0.7096745526997893
0.7256112360706645
0.7615070087538985
0.7804179043824554
0.8179438965182932
0.8380200940265222
0.8717752707139086
0.8860403573178328
0.9031391308323433
0.8862524567173123
0.8536754991792609
0.7858523864522319
0.7301832186202079
0.6589456112023562
0.6123900070913543
0.5686256594667465
0.5481102166303381
0.5310147102748711
0.5200397021127966
0.5128358040053027
0.5093698571147064
0.5074764007302515
0.5029994682502046
0.5049099726976768
0.5047107511311875
0.509947481912056
0.5062695256235176
0.511566429470037
0.5022526214637504
0.5092323667943622
0.5003446275466138
0.5108553701738561
0.5010833723044904
0.5121870713789743
0.5039146650351191
0.5120923351109831
0.5039888288398641
0.5080653283113348
0.4992094665011699
0.5088871466350109
0.5010998092116118
0.5008462247824237
0.49746572371507114
0.49761349558777646
0.49898067881152386
0.4996258288880748
0.5008315800342179
0.4951021494451037
0.4967683161064954
0.4942940572051005
0.4973935318224297
0.494329460473102
0.49915332975375337
0.48471326122209685
0.4955257008023991
0.49124792042502047
0.49566359100779833
0.49390265247407283
0.5035420179542406
0.4963017199705714
0.4999938427301925
0.49283865717841924
0.5006617105780906
0.49497382504415494
0.49849081744279156
0.4970814947705994
0.5005587815597412
0.49749761064188275
0.49757913425455425
0.5003904357425148
0.5032186042108566
0.5044026528314196
0.4994124651877881
0.5061698908981261
0.5012258765336457
0.5136238684750429
0.506428219873122
0.5197022345886978
0.5174022920644219
0.5343409796531526
0.5272507463712687
0.546242302139819
0.5307631257994506
0.5433765855065076
0.5246476559307012
0.527660131131561
0.5035381206178109
0.5248507288185146
0.514186687876909
0.5319585759519037
0.5203526647064718
0.5337641033405305
0.5250430948323317
0.5408174008360793
0.5088629929583799
0.49356919926263376
0.5306867523117079
0.9033098644402126
1.0
1.0
0.7035655542381203
0.4096647233440988
0.4886338396506359
0.4484898167391756
0.5240583675484366
0.5324273722897483
0.5578996889565245
0.5422296926918044
0.5655508425165042
0.5460555002658676
0.5677298766615407
0.550755478797317
0.5722942776481419
0.5573384885232502
0.5743506960592483
0.5670335025791251
0.5782473921087066
0.5707104486491815
0.5807806954870165
0.5781857228414176
0.5856057502129067
0.5932923400394843
0.5984564813567159
0.6079628035535941
0.6120806894434742
0.6257840449854122
0.6338670691032725
0.6535850509082031
0.6662629073072082
0.6915346637894353
0.7080476457865734
0.7463914987061779
0.7785324672283294
0.8211267208887845
0.8483145244725787
0.889538937843283
0.9115227477464842
