MLII
0.5
0.634898151895319
0.5
0.7533549148604436
0.7679623229151498
0.8450077472790678
0.873707990058954
0.7759149988285536
0.709732603851697
0.5946250412503323
0.5674490759476595
0.5013964680794581
0.4923723477040108
0.4238693057271073
0.4325509240523405
0.4109136521068553
0.4584981882175293
0.42067301171073385
0.45810030721003236
0.43119413293088
0.44742063431496276
0.43446716732409146
0.4694425615657548
0.42147544844921814
0.45148444411612065
0.43102771915331106
0.44345419699151145
0.4367057338536374
0.4358252082745212
0.4310690844416348
0.4381975435656472
0.43361458386510227
0.4390508514907173
0.4616745547766638
0.44978046795762133
0.47665416250798465
0.46473219384880593
0.4942571834654328
0.47699076617011305
0.5035793209803738
0.4626704055298556
0.5069972880045025
0.45974373604663754
0.503689513881601
0.46562527300028284
0.49490115525815054
0.47152735639558624
0.484711332736699
0.4516764981051605
0.47786684543076746
0.4582764350395963
0.4463992432615577
0.4495353968260692
0.4432755712742399
0.4325509240523405
0.43539682476625086
0.4368385755312086
0.4196276505137891
0.44776426442452866
0.4038544720488814
0.45743042606483986
0.4288568025771993
0.48461186050154836
0.4126533596375815
0.48020942538542377
0.40735100113553413
0.5068598504193158
0.42265456076123664
0.4835691044722642
0.4070434936317147
0.47012293712623343
0.4303639631501898
0.5010517290279665
0.42989914441362365
0.5050358840916223
0.4601048697298079
0.5059685872114026
0.4786904857321706
0.5116116758234173
0.5499929913144154
0.597216289170846
0.5974773777325433
0.6251659099304635
0.6489124573762753
0.5803633374227588
0.5691412754013705
0.5582616310836279
0.6160521808774817
0.6207106345236769
0.6465949469418844
0.5183646890538925
0.5606160391344954
0.5059086491117694
0.5210548145056484
0.4851330566312435
0.5115862840429435
0.4663611775333794
0.5184242831391946
0.4790659947956857
0.5027500180620896
0.5212902885322636
0.5328241630577026
0.6133885364618539
0.730157830905505
1.0
1.0
1.0
1.0
1.0
1.0
0.6248942271860908
0.45550678675035555
0.47303766388273855
0.37881700250524575
0.32298345954109514
0.2874439827916363
0.30063873026765686
0.30127585569001514
0.3024501209713907
0.27625650919169564
0.29669174129789144
0.23199931177227154
0.25838666262057747
0.21887271523602486
0.2513016146917206
0.2348578510211703
0.25023968190480617
0.26742493294967423
0.26656052238164374
0.2787963650866626
0.2976721858098096
0.3057767241532422
0.3095749874770183
0.35250406680551044
0.34474459917214234
0.4261534186260182
0.422768801807955
0.5310878540475537
0.5529870420652323
0.7112345048468391
0.733447931410539
0.893998924432885
0.8834811571559402
0.9836808522221194
0.9122539388771912
0.9396872729273393
0.8319446983726598
0.8180592556440713
0.7143043679412255
0.7007838847357958
0.6230169452410322
0.6341944283297616
0.5884232038015745
0.5962224464069553
0.5634747855629552
0.564898555427741
0.568358616202463
0.5570431749924781
0.5501981662125714
0.5326008481370536
0.5316529632150899
0.5063329567961941
0.5374147647353608
0.4898021975334094
0.5127549706319324
0.4821193746404154
0.5340742371405496
0.48700968398151784
0.5418762496205995
0.5018605813712428
0.5366268944669321
0.5111489735467168
0.557095895099925
0.5029445801028122
0.5665553330479828
0.5305686476754998
0.5674569191555643
0.5460096863422056
0.5517535255869107
0.5311083231776778
0.5216711985771326
0.5238874291503941
0.5076096067006832
0.5276795025641248
0.5000263797856409
0.5413882997721909
0.4758649289164544
0.5282730626159797
0.47348187186893603
0.5199867270112046
0.4508567631956029
0.5209590310245683
0.4665635771291005
0.5112299871570876
0.4742136188662913
0.5071237878326889
0.4402435533800598
0.5004983291693061
0.4454162048292395
0.5012911668073757
0.4704728487568043
0.501500297232867
0.45948240499209925
0.4897691464376052
0.47976169812815506
0.4659975060020235
0.46815445247259035
0.4839119963512338
0.4766976631409706
0.46495872938458704
0.4995754741814378
0.43807233375669447
0.5032629855807281
0.45622320625830426
0.5083450551793872
0.4369181406106312
0.5208213435431639
0.45233436892139445
0.5118662613116793
0.4728517746384293
0.5302664595058704
0.48326655836545884
0.6174401609908107
0.558935466624588
0.6410100287087562
0.6215791216528948
0.669582733232329
0.5787825553422061
0.5627692154658961
0.5868898125908638
0.6132828970783561
0.6271200123047324
0.6052009726333495
0.5417359273294011
0.4848924089415939
0.527745473291846
0.49386419627869727
0.5182182364105115
0.450080308543242
0.5065020612004367
0.4705973973045706
0.5207027661868164
0.4402119941604732
0.54446389105712
0.4623823138839057
0.5615131338348013
0.5768073844222006
0.8980067431013946
1.0
1.0
1.0
1.0
1.0
1.0
1.0
0.6379830041359448
0.3481765428290518
0.4249225464581968
0.42287442858457247
0.26733106734462675
0.2629956429448029
0.20939713506287877
0.2274781497508179
0.20877530245744938
0.23921716249234665
0.1613916191682363
0.2294464009989509
0.15849416929670065
0.1920995751608509
0.11106439614822779
0.17862427786740534
0.08947620394313453
0.15371774266443414
0.10315960973581668
0.140656527311591
0.10554553728026939
0.16817449676151014
0.10652432142336118
0.17105712633887374
0.17085875754756205
0.18101544111910073
0.1869483891325186
0.21675508859884518
0.25896854545097653
0.27902656345512156
0.3715853007423016
0.4253511918497594
0.5485520877837321
0.579410744985258
0.7274970417672415
0.7805787927411301
0.9235338791382617
0.9239597507615827
0.9965218555821636
0.9173699487410623
0.891431524449916
0.7635005000061124
0.7394757833157677
0.6253842177064914
0.6220409800361641
0.5699644603473273
0.5742994917873177
0.5339775257328946
0.5471269729815383
0.5041983261456531
0.5226148391018961
0.5154115867701814
0.479101439799787
0.4804316560192799
0.4820411018195198
0.4715712594328754
0.4426038200746942
0.4731244969776368
0.42764645608452667
0.45933080399853593
0.4077143005024226
0.45128163865088144
0.39959221192255356
0.48981093137365816
0.42800428829320963
0.4826986449393895
0.43220630644224567
0.4987246208973358
0.45166668181880976
0.511192020540126
0.46393115439392985
0.5015721827603086
0.47469264453464277
0.49595976267406805
0.46216678884944623
0.49859477722329304
0.45911954929372706
0.46854229945887804
0.4697586920385177
0.42490994800636345
0.4548889105523829
0.44242446126910095
0.4486062173044251
0.4096487047871274
0.4529226076250228
0.3946504838648643
0.43225491194799287
0.4054832962137026
0.4668060695140731
0.39956026359800295
0.47927051672130216
0.40990957976524156
0.4226377242061126
0.41077969960370986
0.4585235637918864
0.42501001105247405
0.4800407691909349
0.4208691255904243
0.4762884406763458
0.4242135242867688
0.5040902481618914
0.4361919618629552
0.48417252838437175
0.4201771906449746
0.5029248142020766
0.4268315508800769
0.4694753883647979
0.461012594976219
0.4744737909681939
0.48873348255312765
0.49037642199973164
0.515994677955439
0.5504283535299089
0.5826809590537233
0.5761343882247731
0.6337235597617287
0.6075845116882349
0.5993658319688133
0.5515780101727252
0.6074259636012466
0.5681244352529473
0.6477215676746263
0.5414481462161435
0.5282566565040175
0.460163465824209
0.525512654704374
0.4650765957479486
0.5190575549225837
0.46157663898456525
0.5055895289385616
0.4822833588833806
0.5064877337311179
0.4604868091824173
0.500187067580672
0.4835230519279593
0.5188087317990507
0.6233075102724851
0.8367758969976423
1.0
1.0
1.0
1.0
1.0
1.0
1.0
0.49837750815567083
0.4157176181293261
0.39413413168175565
0.4376807059526685
0.3100834588605349
0.29494357195120496
0.23865263685910892
0.2977247642357908
0.21894490648972767
0.26366899505709507
0.22736723875206838
0.2370612437013746
0.20988135693515192
0.21904103506022654
0.19259461915893997
0.20458378713989375
0.19840521178634699
0.18874417229188256
0.2039979382432841
0.19563856142582275
0.22060595473633712
0.17179655878937855
0.2440720423261864
0.18200412431001384
0.24356286827328072
0.2329890577813638
0.28942934464107045
0.252115876176234
0.34295337817539484
0.3393117739713201
0.412417820138719
0.42857429110241785
0.5431163305299354
0.5793571610942376
0.7153015145666499
0.7655612089969976
0.897969301504958
0.9398667309042796
0.9903585266958892
0.9650447782703235
0.9360195370349391
0.852947428617606
0.7984601477638976
0.7422178951848816
0.6716329408313141
0.6700906053599507
0.6180289738072563
0.6240073302891677
0.5928918931141401
0.6261133663256453
0.5470909486158292
0.6203571846213775
0.5398856326030702
0.5799694326209593
0.5179218108893272
0.5615944058272555
0.48198094642430894
0.5516152902917711
0.48485735504340977
0.4994654818798132
0.4820028476378312
0.516839507246302
0.47489009005394517
0.5262452227173899
0.5286093022018716
0.5291690814676355
0.5394096028752265
0.5372721867663752
0.5428808564863232
0.5315398110139944
0.556333037238722
0.5088564971167043
0.5399635617722637
0.5029930681921944
0.5330333815387129
0.47285976176787486
0.5227482202128998
0.4694924286746637
0.5245505756626012
0.4343230547400535
0.4869507335299345
0.4259949935363241
0.47846420754150126
0.4211315873105138
0.4817339112328696
0.43719212767926396
0.4671795591270735
0.43573136191965356
0.47599415147451696
0.43888817415206277
0.4560022931916753
0.45026728696714075
0.436636149070284
0.46429828373833615
0.4325509240523405
0.47047745028526194
0.4498633685243984
0.4797516020322884
0.42627832130255133
0.4973075790289763
0.42301189224260005
0.5004934244077568
0.4489779616643824
0.48357000773693165
0.432036366686099
0.478842756071562
0.4239223064568529
0.4955547767560839
0.4414260676752483
0.4939188161911418
0.4760903859801188
0.5074462360703488
0.521254824650901
0.5836191451826751
0.5704885199930936
0.597223046181493
0.5897004007132289
0.5458354508028582
0.5387482080023724
0.542049315320162
0.603382434248207
0.5184868591128324
0.46559296667947114
0.4476455889975853
0.4559537559927301
0.41943573100415793
0.4841010162442861
0.4109312291032432
0.4785084130759897
0.41406742656222495
0.4773361444986195
0.4237095541396679
0.4940457438399335
0.4944986121352873
0.6867157526390596
0.9836269463188984
1.0
1.0
1.0
1.0
1.0
1.0
0.5198601427222515
0.41788465834534405
0.4140916021084243
0.38581825436926487
0.22418350614376834
0.24674283316060924
0.19173084715189184
0.21697929188780923
0.1514289710007662
0.22267707764339698
0.1559014845001605
0.21370587223371668
0.1220087499774074
0.16501731166485528
0.0982018229960259
0.17366110884327393
0.08998401202660596
0.14673627724201657
0.10829162026957592
0.15657168924375697
0.1350677023098001
0.1470539064395416
0.14268260091137902
0.18593562307773767
0.18469112048381642
0.20252492518188386
0.23713873312482286
0.24990990735804663
0.2907161184351001
0.34362175623016833
0.43111654411639594
0.4819651966496162
0.6330290242244285
0.6748931349272357
0.8401286328821655
0.8691422793235869
0.9979673846387691
0.9346846390638657
0.9657972512523066
0.8494082916740924
0.8239764611833266
0.7122601858847958
0.690572872179943
0.594834669691883
0.6029517157563953
0.5477149938545615
0.5713610364307988
0.5397276972383718
0.5486059855118588
0.522677602646952
0.5426689234305535
0.5409500457700083
0.5
0.5097202572212874
0.46567788735192617
0.4801147622927795
0.4525430770309578
0.4791422493352446
0.43365503951203566
0.4669846073563475
0.4366091361961761
0.4746891715072567
0.4324853649706541
0.49300065939710597
0.43376433089306826
0.5179937729304391
0.4621693085299339
0.5282483621629799
0.4960626169823862
0.5338763644117516
0.4987667992130652
0.5293111939655988
0.5323085651786525
0.5085965576923126
0.523466086685326
0.49718927931679213
0.5159375335154703
0.4934344162977441
0.5116555863766609
0.49119540630183833
0.5146504893380253
0.46520818098450745
0.5067663953868194
0.45648218669815865
0.49649015049333967
0.45493031012290663
0.5370322174385193
0.45463702084596286
0.5350395079252721
0.4727861055192367
0.5369575074865331
0.47011475990489693
0.5320061103540039
0.47548094428370896
0.5278948220353274
0.5019200254912504
0.517256581173464
0.49956217934732045
0.5110108801641781
0.4956503651071804
0.5197427364936598
0.5130497604948628
0.4935951429929594
0.5257103522598099
0.49937533810272117
0.5237932975641313
0.4834306912269975
0.5056405204360537
0.4668699726702773
0.5784643023474714
0.5462544349794219
0.6399533494567577
0.6028568059948468
0.677751862455071
0.6104891399790057
0.659149670321648
0.528591145644258
0.5807948273197393
0.5622564860410126
0.6441004104612296
0.6125609012923137
0.581189352573758
0.4850914057054959
0.5404299210325033
0.5363229951944365
0.511153943015749
0.5263003628736244
0.48552467530242727
0.5064727488078098
0.48026524432796214
0.5088851804316427
0.489333023056682
0.5525621164404759
0.5211909047371781
0.6430268987783618
0.7987666270664584
1.0
1.0
1.0
1.0
1.0
1.0
1.0
0.7491940854702116
0.43685324390082975
0.4261899805235091
0.4532415454282587
0.3311979095807026
0.28286380117714727
0.22968195880060155
0.25669585402069706
0.22375227414163942
0.2469330164100613
0.24689883582708524
0.22066177956386404
0.22210930534880896
0.20221485525560098
0.22316894251187086
0.16502697667003918
0.22738449162821645
0.17489424731081527
0.23349049063606384
0.17745694636567683
0.235436387182293
0.17370840372761448
0.2518999223684001
0.2004410806068865
0.26820698658101094
0.23774194226025597
0.3044428292838554
0.2844408874562007
0.34284024420915526
0.3541585606490393
0.4641282373442709
0.5332326979034244
0.6341775505982079
0.7410747108847204
0.8627977732199621
0.9801847817690439
1.0
1.0
1.0
1.0
0.9214603326822047
0.8908296842153144
0.7501594253235718
0.734903988987047
0.6530878062262891
0.6873833441759352
0.608128917161026
0.6694260505060907
0.609884554357706
0.6474741543721987
0.5902465962974276
0.6072617881217939
0.5546941878330285
0.6005251825810299
0.5399030115502061
0.566243722888523
0.5541578536202401
0.544878853792575
0.5500893940947076
0.5246996498801118
0.5667820467499689
0.5742660028263538
0.5864922378055352
0.5638967499224725
0.6072660842652994
0.5527335768345636
0.6007100449619445
0.5443795795533461
0.5948530368901147
0.5436905390375361
0.5903113707245482
0.5395352890735102
0.588095052675348
0.5217200189073166
0.5753679418724784
0.5291058012108648
0.5622452482702824
0.5211481184524951
0.5653731229504639
0.5182538260165368
0.5421853910673244
0.5225781384792861
0.5197553616991154
0.5389965977732702
0.5182415099331334
0.5172256403286799
0.5192304838510781
0.5430064391222197
0.49070945800174615
0.5513175963843687
0.5076914036965314
0.5400433245338904
0.4949123493680644
0.5738960208253572
0.5001855597343151
0.556622306284655
0.5046548545237952
0.5601990343026891
0.5154050324216289
0.5642751585449203
0.5118571968739627
0.5662321044798372
0.5277526112175085
0.5858978097748647
0.5644723571795939
0.6468982506356582
0.647962209529964
0.6800782308994899
0.7053973412159283
0.7145615998469959
0.684851781671493
0.6263982684918206
0.706292665372056
0.6565419627682292
0.6951163113492067
0.6483960748002703
0.6165823538141578
0.5324062401568156
0.5925902768384559
0.5225836378630925
0.569844695947124
0.5051082369150782
0.5714030200800868
0.49791903821028727
0.5799948422101882
0.5027250530940848
0.5918590186642025
0.5741430995581627
0.6697238271264051
0.8568944944878079
1.0
1.0
1.0
1.0
1.0
1.0
1.0
0.44979054410515296
0.4700164318985525
0.5033199369473758
0.38932485901151115
0.3775525833124812
0.2891520789833334
0.37617761391783355
0.285330436716947
0.3478892758406699
0.2891406478048436
0.3278513946219151
0.27831735711534655
0.31573322578490914
0.24008822057213025
0.32683771181354526
0.25859923110722516
0.2893863703305869
0.28891063894168206
0.3165817252038359
0.2857985090795975
0.3276980256176332
0.32421601817554
0.3414332350965016
0.38131570765606926
0.38086133960868845
0.45607840635069774
0.4738528374559768
0.5443921321443488
0.6154086915192757
0.7292609183463966
0.8081723529428444
0.963908272836395
1.0
1.0
1.0
1.0
0.9289001586340028
0.8503854097418989
0.7432706968468935
0.7278668414993321
0.6535243734060905
0.6693192845023308
0.6089691131688465
0.6372951992667452
0.596845158791327
0.5872950948420252
0.560998227473726
0.5580282605309301
0.5268156592021119
0.5227510678365109
0.5200999154589105
0.46664846374293356
0.5227884230271364
0.48983460964317427
0.5214803920773857
0.49954205976623606
0.5424370648159055
0.498030804747201
0.5566032138403084
0.49870867558973864
0.556625791930567
0.49829722813314214
0.529993339142691
0.47918631355290237
0.5072519563992712
0.46743809230779876
0.5123565737098039
0.4364250388840598
0.4862154964864189
0.48098306954025805
0.4935213258256003
0.48189677863778063
0.48766914091878827
0.46042789476108403
0.45010456910933083
0.4823532319351881
0.4408286392977213
0.4893643223240388
0.4423109453713538
0.47811772017389814
0.4683358059579049
0.48971572870523883
0.42274236580376445
0.48603845091643016
0.43582588696357627
0.48833894594370514
0.4296363743631346
0.4916101870354951
0.4416822720997057
0.4941186248326919
0.45277784012519284
0.4769612396709594
0.4435096880079413
0.48947042255437845
0.45960969031983245
0.48713382112670434
0.46056134798183973
0.4716664390793518
0.5321166122458203
0.5498838105548682
0.5812641347568357
0.5770005474947053
0.6012045889544954
0.5533365665233891
0.5599592612631689
0.5237745136573595
0.582889948510845
0.55930455860445
0.6076813036144653
0.48841318911304576
0.49665258266206924
0.4445333032415496
0.5115178727786106
0.45509264806314664
0.48559819685976857
0.4320480415476231
0.4802896531869395
0.43868407170665236
0.4770763016525776
0.44177717396127225
0.4944036436390401
0.5126145178316149
0.5166457448404402
0.5815438708161649
0.7054514544324921
1.0
1.0
1.0
1.0
1.0
1.0
1.0
1.0
0.6655678197632537
0.4325474955724017
0.49258453225845733
0.39901684295118256
0.35070177975771477
0.23019837702045484
0.2890659000742367
0.20796148215051047
0.26572467162659896
0.21906512203174974
0.2527838994388364
0.24281854532123
0.24588894892791918
0.21511512219536183
0.2179551823887961
0.20383438222491485
0.19598539868578216
0.2328853736868898
0.18447739158624374
0.2333197295745221
0.1819114610602198
0.24864360199165736
0.1951189379092401
0.2275129528405392
0.2180724151964583
0.2769240729926581
0.19765175949288322
0.3064480104145581
0.2619127410370123
0.32825642164559404
0.30442530293758785
0.4091437580304028
0.38804056136949727
0.5137569295481099
0.558450925250005
0.6822931997533317
0.7645153212000244
0.8964451274579129
0.9554773999857386
1.0
1.0
1.0
0.9675974771240601
0.8968966870781176
0.8594761810431628
0.7574559680680503
0.7503373805141959
0.6875601079544931
0.7146738747795117
0.6528529730694317
0.6891488500104368
0.6242316053967151
0.6865215611883542
0.632965659760399
0.6650070823789266
0.6060934845441299
0.6599247936355167
0.5973804031563712
0.6012366775178837
0.5650917119124892
0.5689964495996208
0.5558385141023863
0.5810229349154674
0.5562887843940437
0.5495600974808713
0.5889884291567185
0.5837358229696463
0.5764445162771555
0.5677804783497308
0.6203502090446043
0.5685767512076381
0.586324103433221
0.5463072850631778
0.5997453511622739
0.5555826935236066
0.6190272987917229
0.5468145259736193
0.6043237477441348
0.5434965240091223
0.5744225548476989
0.5392196276091096
0.5937448219558996
0.5203169070854632
0.5542603686861477
0.5235638891526099
0.5521048106971305
0.5441144569966564
0.5557176830383792
0.5306641501234861
0.5380555405948794
0.568313039275558
0.5297370425127143
0.5509703285452654
0.5375799455456727
0.5514082765059964
0.531631393501012
0.5563562563310025
0.5231036527136743
0.5757915290434125
0.5135304449026237
0.568123000935773
0.5553988672582026
0.5924610600308394
0.5425977981683489
0.6070718583736772
0.5201638680495175
0.5814119783731513
0.5439133983696784
0.5912803210500572
0.545008311069241
0.6055963788649044
0.5851575730139108
0.6084355258469932
0.6423421229367878
0.6700665999567258
0.687449941299614
0.6880575356401073
0.7039868015366795
0.6571043318725678
0.657746872864195
0.6193356840927118
0.6757607619890573
0.6508840946067684
0.6894666842817939
0.5908448867802146
0.6180054824732721
0.5411369431133584
0.5903604467441246
0.5394601177269995
0.5883389127930799
0.5321408046219815
0.5813969002664189
0.5157892063515923
0.5645504799629287
0.5339528608838948
0.54111425555419
0.538521671060465
0.5991779582101663
0.6669358229341118
0.8788178720858412
1.0
1.0
1.0
1.0
1.0
1.0
1.0
1.0
0.5254429323399659
0.4920288288453241
0.5178092538716824
0.3676181421790486
0.3580349006943912
0.28797839215743054
0.3373415870734525
0.26307668389746164
0.3175203267734785
0.2651307636257029
0.28866647367387716
0.2539861902999303
0.24783456266641757
0.20617451117761093
0.23146534063830776
0.20796592791742824
0.20494692030862677
0.2201602133360993
0.20721924832239869
0.21679153712142224
0.22055771828006376
0.2252815628100032
0.1969787451509683
0.2571774892733972
0.21514666298865354
0.29763795680615474
0.2727555649856721
0.33470430757409375
0.3166516242766729
0.44563337923526347
0.4528458693925953
0.6159231307627067
0.6547948338938545
0.8353846633144253
0.8717763960314642
1.0
1.0
1.0
0.9601800421385451
0.8999196614331364
0.8472828599670128
0.7622541908751863
0.7157531491733522
0.6741045544617841
0.652161348488903
0.6183481846196429
0.6546698283237266
0.619913023330485
0.6358720290937495
0.6026675749041633
0.6416733346312277
0.600241256962873
0.6326240887448528
0.5671191887166882
0.6060958702919363
0.540177290131292
0.5980018778640173
0.5465886033982039
0.5820052234327502
0.5253712530493165
0.5925880413123852
0.5493991819056862
0.6113692699994454
0.610030223735527
0.6055746473240646
0.6188319959382247
0.6303599256087359
0.6174184353307304
0.6270783900813633
0.6317728921496117
0.6001353215519483
0.6297962021407242
0.5823007026828417
0.6126626048291224
0.5724766541711201
0.6037496310909214
0.5503441815795042
0.5926812343044817
0.546494905698136
0.592779956469062
0.5440708290273019
0.5957624208407107
0.538638618800721
0.5901992011064097
0.5329593494116398
0.5835335218194905
0.5454691078275401
0.5648083914437931
0.5295104758909
0.5714547429796184
0.574191617167613
0.5682354729909298
0.5581783841071778
0.5733403996726467
0.5806619372592023
0.5592291829390139
0.5931903337135016
0.5601123393879324
0.612133045982023
0.557280346941777
0.5989740770950907
0.5702826980377796
0.6268850330045295
0.5689637239545213
0.6346673222599388
0.576471402112616
0.6419889654971327
0.6393093649412649
0.6915553150975577
0.6490396317858226
0.7395101528152734
0.6799904420491354
0.6744679032095766
0.6490357344933326
0.6785443857654375
0.6702597479218891
0.6834309147941143
0.6859123635941253
0.6324104249619693
0.624140630507533
0.5863361114163398
0.5873080382183838
0.5771697191059917
0.6216525564569616
0.5740820373271556
0.6027533136843779
0.5513457206668155
0.6045580190878752
0.5593256156465496
0.6497729713238031
0.6369190598567894
0.8342600891455898
1.0
1.0
1.0
1.0
1.0
1.0
1.0
0.5661348489592859
0.5372634744704086
0.5448486903381712
0.48045943252868845
0.4213694549539557
0.41014597641663164
0.3999791256271918
0.38938236710552243
0.3905522613019139
0.4087845229695228
0.35032357677523357
0.3820403697287052
0.3246004166084128
0.37421765080691594
0.32428377593924385
0.37378815833756196
0.30315930105981276
0.3725664473490783
0.30351027874432673
0.3488003208464749
0.31809932775505073
0.37219004940204703
0.3289799508149024
0.3822972998243919
0.35972441829710544
0.4247466847174306
0.422800213538942
0.49455492788765926
0.5675427108383648
0.6475126589647799
0.7419022772541431
0.8202171507104545
0.9472498309382505
0.9873590286853012
1.0
0.9683777785570655
0.9870163371518654
0.8824971075240832
0.8502167211889258
0.7422888758121658
0.7434711046631625
0.62926848443025
0.6818686623313853
0.6002442131687763
0.636548270400069
0.5800112331944264
0.6213320251748681
0.5766064427702624
0.5874576253959961
0.5796047128612722
0.5835399201721925
0.553017495581243
0.564510429399117
0.5457363743042118
0.5378598546357083
0.5182551214932631
0.4960413438530346
0.5075673189981267
0.4974085992233287
0.5149638503100262
0.49885679683781464
0.5442590532001355
0.4991428569732633
0.5354355075039553
0.513039781039835
0.5511936296777666
0.5062554123474873
0.548837854160354
0.49015707400309977
0.5662774313281667
0.5039842551472036
0.5269720793054631
0.491607490400892
0.5230559568250934
0.5022617668944943
0.521050991680807
0.4850643233101926
0.49405854668308524
0.4827555190479389
0.47676563463971966
0.47886707778138043
0.4822423231797848
0.4699192269125404
0.465132488191608
0.5047632057571485
0.45179513871088783
0.49522350202735677
0.4498207971707721
0.4873083250456857
0.46934263151658395
0.49962895278690994
0.4440043869927798
0.49581320607226687
0.43329834999326583
0.47941475852459103
0.405073914621415
0.4759009792561836
0.4325111858535978
0.4751787172294349
0.4364434963875752
0.4750807733932493
0.4692229259945175
0.45460509414818473
0.5010413075923252
0.5184998453315138
0.5364310842461754
0.5739318939114886
0.6002319685247041
0.5424928477749053
0.5671950440966044
0.5480460494498508
0.5558527561577538
0.5461231886979585
0.588869192408184
0.5093117569983018
0.4902456418497881
0.4736768807063466
0.5081215627923481
0.4798572877607688
0.5130317734496133
0.46007285126695363
0.48498543516270487
0.43823760131015366
0.49841264305758937
0.46839885293718186
0.4780321017821124
0.4788056381149827
0.5430144364290251
0.6515483985627307
0.88641730467299
1.0
1.0
1.0
1.0
1.0
1.0
0.8519315133502868
0.3981471528224758
0.44956704000548486
0.4154705476718979
0.3844230197439683
0.27773157587032027
0.2886311779620354
0.23449323751131015
0.26923412130117597
0.24988270337701418
0.26473385038716246
0.2220333038923264
0.23874904525356996
0.2055384208043279
0.2135097646057083
0.17565123006330013
0.19417245875948724
0.21262150050094789
0.18523248060353312
0.16998646756595606
0.176175834561771
0.19309461674102044
0.13519375547751533
0.18060145105325104
0.17538617766203535
0.21976850721475785
0.18698626743122632
0.25990524805876947
0.2145339193555959
0.29920008686262295
0.31547491129450245
0.402208901404267
0.43323245074234845
0.5510677895505237
0.6416937500074085
0.7599332385945777
0.8177090109371816
0.8556521310905822
0.7795795173473785
0.7919221847691912
0.6903159412848783
0.6477104446131867
0.5654845353095544
0.5641307268724665
0.5254714509045106
0.498952876984569
0.5308599050552575
0.47651688560383565
0.5285136092283518
0.4750369282853195
0.518804243573339
0.4463346222004807
0.48166071915683173
0.4283744049018833
0.4637660521144918
0.4010732482018645
0.45494944992473857
0.4106762458582708
0.4444496023842082
0.38950366715361284
0.44481427138520224
0.41346308361634854
0.462508069463056
0.43550418478303127
0.43289717648213155
0.4150449895177111
0.4529545493735804
0.4199744082367761
0.414523787711385
0.427661277582715
0.4142692693141089
0.41473633666161014
0.3947711775348033
0.4280250421497239
0.3952913346674999
0.43243725771485647
0.3726546619627368
0.4400314189587201
0.38549301318692175
0.4323297689529458
0.38264266657995377
0.4425187183912156
0.3915945761893134
0.4339576999311149
0.3917551390475031
0.4454015851496579
0.4203199238373432
0.4524990729318805
0.3980084905725988
0.43539178834525744
0.41518653692795826
0.4315440862703424
0.42074814023639345
0.42259068996376403
0.43307471565263755
0.4351502116595755
0.43377083566849334
0.42029976255491464
0.44032170532309883
0.41067583617090014
0.43203381546661157
0.4208209660674072
0.45801306979501416
0.42438932665186285
0.49140305483544316
0.4701877306443591
0.5350599427534595
0.5066997437141341
0.5450213641157833
0.4897783330315962
0.48876448912107734
0.45009649177246214
0.4974127455785429
0.4928390856122074
0.5203860911382643
0.47916916532752624
0.4368360666684656
0.4220377597657685
0.4311920468678438
0.42255726988685804
0.4148287885776695
0.4334283867181786
0.40806896178723645
0.4249344925869699
0.40390651759492935
0.44448244151867256
0.4446727436831299
0.5372295744511221
0.645212349686942
0.9665162908281066
1.0
1.0
1.0
1.0
1.0
1.0
0.5233610518846202
0.49795352397047593
0.41570085040502136
0.3529782621917171
0.2680832513450193
0.27830451674797174
0.24129429772314576
0.24300573597047354
0.2166061793242505
0.22105373285529661
0.2367946391447195
0.19702383508595403
0.21367950209584877
0.1886828911578963
0.1954815935705796
0.18378913888646436
0.22228226275695243
0.16849054300462685
0.22327215765346292
0.18791179508936925
0.22140410188430354
0.1981689414750675
0.2315967744740921
0.21026597731130586
0.26702814432282596
0.23923451468981877
0.32047608189486415
0.3219050445044236
0.40288054540702367
0.44643988377578747
0.5479072418423042
0.6186845978011608
0.7090693016817176
0.8049482787172743
0.8505046310863673
0.899061225155592
0.8819990570028462
0.8580453539983985
0.7793022585609044
0.74989579253942
0.6430757639534025
0.6394332090637339
0.5592161196089818
0.5847143864460957
0.5454711414971696
0.5840039408851962
0.5383996961069298
0.5847525418591369
0.5414672451966056
0.5877532540570536
0.5495044880173666
0.5690539203586717
0.5285962262503114
0.5570196078694867
0.5210772317182634
0.5280156446914471
0.520176339326649
0.5306361727124351
0.5408351151210329
0.5374548769542675
0.540977474843046
0.5391425784051757
0.5748352939261535
0.5367478812781188
0.5693381581666411
0.5311966643260329
0.5652367891283945
0.5416381174943157
0.5759605950384181
0.517897643409937
0.567306581243381
0.5136813734487541
0.5417529449946137
0.5157179945467104
0.542992076574032
0.49681427905992487
0.5426593790660471
0.4892410477684284
0.5249546486286755
0.49459114543510063
0.5109439707619007
0.4924603173754775
0.5099767441729948
0.4986411486911943
0.5096724894032081
0.5066376208842871
0.49430273873574854
0.5192472950472309
0.5048450809934742
0.5267857074297055
0.4973979483035131
0.5110326560957311
0.46987381148468577
0.5169145632883401
0.47324349371139307
0.5330218047409359
0.4665896082419275
0.5204346571206907
0.48173896983905673
0.5250220171814309
0.5024648151350999
0.5674431805107804
0.5811359896026816
0.6245117528637545
0.6206123028240531
0.6131234937666997
0.5626266181861057
0.5802525630720013
0.6010957765867577
0.62069237633642
0.5654723095690415
0.5475745280423795
0.5504071310079585
0.5194120899642312
0.5502124504875828
0.5118680376610659
0.549637813681049
0.4965735753128907
0.5405657711811884
0.518561785395654
0.563875366714445
0.5603619946964626
0.6927162489329303
0.8675823309522691
1.0
1.0
1.0
1.0
1.0
1.0
1.0
0.5544243260681924
0.5617642360389595
0.5134846088360913
0.4267075186749175
0.3801794845945735
0.3529869963281092
0.3666783339984239
0.32819166736567956
0.3692236939817043
0.31946346011173976
0.34236321641048884
0.29220106420142733
0.32226550839927537
0.2898973403409172
0.30859147908478507
0.26857691976782905
0.31418377195620406
0.2708795209035727
0.3076882806957356
0.2725110700415556
0.31436866278815795
0.2837592809786423
0.3184064618971189
0.28781612994564443
0.32941538795865466
0.3315090800457039
0.34909529867187616
0.3651361707851117
0.4213413478921594
0.48233008273659406
0.5192874032390911
0.6218078308506172
0.6956610187250819
0.7987924785378557
0.8602247247244325
0.9344224854102599
0.9392124500684963
0.9756108190632784
0.8960308403803954
0.8831585159120607
0.7863919823931571
0.7585755654393689
0.6690978500979243
0.7031544380806052
0.6449526168993194
0.6748712571540512
0.6339844367092176
0.6434700149942154
0.61179297122153
0.6298208840969963
0.5998503887228941
0.6182069516990757
0.5952510184077281
0.5924639638328759
0.5837944762274482
0.5664871158877492
0.5724762967666278
0.5473601010926344
0.5620495922552906
0.5336173454162603
0.5512876398963901
0.5369423968743466
0.5512581270723871
0.5237065287539442
0.5837887646861246
0.5442463823140498
0.5893743649203127
0.5451145200460601
0.6113046632078818
0.550976430863442
0.5877191984794627
0.5397470868778993
0.5832579165938089
0.5398134683824092
0.5642789061572284
0.5304931174820415
0.5473040657848185
0.5305651079957708
0.5176129838912117
0.5080679569258351
0.5180868018833402
0.5370283508531191
0.5005948024382032
0.5234337700291853
0.4734147565620293
0.5185656087386696
0.5017547277126149
0.5217012142800822
0.4842145088845079
0.5045812435631788
0.4630720198137987
0.49771632349569594
0.48526738923913015
0.5285296910668386
0.48024519018925993
0.5234694649800965
0.49565895980275937
0.5304913786573848
0.48176757916226565
0.5021987500477006
0.4749668215003572
0.49203530027157416
0.46665589298488214
0.49589013108437074
0.5033746580686101
0.5089797762934463
0.5185837483022127
0.5207241412331667
0.5614553191867906
0.5626314056284167
0.6169581914898703
0.5987572829406343
0.6221172071495175
0.5488866170142853
0.582534665687276
0.5395149772735903
0.6031961619136782
0.5909052372070437
0.6157718361913287
0.5448630902357265
0.5609278092235803
0.5083233309735868
0.565803750080877
0.5281056054629534
0.5443959248464962
0.4991033389154616
0.5364295441447605
0.5025505293817658
0.4985421761137288
0.545367086796061
0.5349092858061467
0.5566901078770787
0.5634400218018122
0.6555380627987238
0.7907613950915933
1.0
1.0
1.0
1.0
1.0
1.0
1.0
1.0
0.5896612787530946
0.48859351347772473
0.5465830929476097
0.4400866305137202
0.41220907334643914
0.36393447170397064
0.3731330907751392
0.331763407183287
0.37279488489404855
0.3220513485336415
0.3270493293027893
0.31703762103592803
0.32596872662614396
0.2994403525990267
0.3009549774807831
0.3281382899651195
0.2821760036589346
0.31319944369679564
0.2749565705808955
0.27988694418125426
0.26045942009023526
0.3014982486782166
0.25419760230685995
0.27977441076795706
0.27693527265449347
0.29655984283925385
0.2742705214792327
0.30494312357167147
0.31054442819364647
0.3530059087153661
0.3664568385374564
0.4551159257477423
0.5053883779894903
0.5958733914113703
0.6520701077658488
0.7662860995574224
0.813457695226339
0.8646967794892456
0.8905906195974171
0.8175289556696648
0.8166397131676664
0.7413838128114049
0.709229888167902
0.6368660799085337
0.6347869834210089
0.5743326330153826
0.6241405949153194
0.5593849162462785
0.5788406931158024
0.5683342192796564
0.6025730093715087
0.5366797420201364
0.5784435911026983
0.5258730673951448
0.5382740000334361
0.5108154653174469
0.5169347957688634
0.4894346004282471
0.5234157171526278
0.5082547988732655
0.49267468200667486
0.4990752307638542
0.5166069592249913
0.48968009805897666
0.4986940441707278
0.527078916717256
0.5004291864740625
0.5330162959339666
0.5085301463528152
0.5212964403830488
0.49662952574098307
0.5317981155676045
0.48545548313855935
0.5264757130783482
0.49466176550790636
0.5227700341460111
0.4868483887244278
0.5322825845706964
0.4974256328713606
0.5192338173239248
0.4961650905828717
0.4991195497332132
0.4742717316185218
0.5040741439591119
0.48808802983012745
0.49938901033392974
0.49298011368815536
0.48216849109663107
0.48047385930275643
0.4744787469376682
0.49588502676743457
0.48453421585482487
0.49665995772207233
0.4688864865065156
0.5079661394813912
0.4707742127930058
0.5124728660301814
0.46786546522341316
0.5052022106379171
0.47137551282810586
0.5034961457729452
0.4680995374726482
0.5037247220623561
0.47576715980233597
0.502646167876169
0.46937887854181143
0.49159025485953356
0.48612858979285967
0.5361795445729713
0.5220761259143445
0.5497287088101792
0.5614441729579701
0.5768608768181067
0.5527914090749196
0.5135971516621424
0.5236160011691573
0.5141378429893313
0.5636284597030852
0.5360458092392437
0.5559577248256113
0.47046974338321385
0.4781227496135741
0.461688477542012
0.482095021713309
0.4397057455242037
0.4673966040139133
0.44865505190958344
0.46641768705567327
0.43444827930216956
0.4855061204467665
0.4476731760068063
0.5155804754180089
0.5484902102879423
0.7254400289466459
0.9516292904822684
1.0
1.0
1.0
1.0
1.0
1.0
0.5924024021218942
0.44600682799463637
0.44657726141597925
0.4280580168522432
0.32455131203530285
0.31178396968694233
0.26054501839908706
0.29495123876021845
0.2564752492072532
0.2765944702246506
0.23126799508763293
0.25635903999032933
0.19599702533623103
0.23740876621033147
0.1893335723449438
0.2050054683053661
0.1801065916828583
0.20399518490950178
0.17721254331704556
0.20260744492840416
0.20775391188145836
0.1968464945755461
0.20846565028846328
0.2197440694099062
0.23350625048028278
0.22926333868492388
0.2740460006845711
0.27903475149179396
0.36037161403761214
0.3834815945655521
0.4794962523560254
0.5145654838824478
0.6244332737084715
0.6625207717630699
0.8046763637048109
0.8114659234478827
0.8747725185628556
0.8365379270197941
0.8556138353000359
0.7744929418179074
0.763660129815289
0.6779252038096646
0.6595975015749171
0.6055110376591037
0.6011324365183367
0.5809734011028486
0.582116992063674
0.5674012877803851
0.5639145185692677
0.5674994298546152
0.5463628232374574
0.5718911410317236
0.5547606497902067
0.5612399081385513
0.5217040070790542
0.5465474700782154
0.503909039325314
0.5318373597048744
0.5066676330191443
0.5381562280261718
0.49561813934667154
0.5511554032788852
0.500472862031848
0.5416962127460188
0.5259666727815147
0.5377486069140833
0.5133485157142206
0.5495479159185026
0.520352642529839
0.5403621499005149
0.5316081477217811
0.518359828756829
0.5230827946216696
0.5062303334551284
0.5153905256782216
0.5106573883681439
0.5035210055344405
0.47555054093119836
0.5040821114407739
0.47004327258229306
0.501899959783247
0.4763670128318852
0.506761487413682
0.46767975945511014
0.5060195527581053
0.4746327409713766
0.5063670613024231
0.469892513876404
0.5297437062283981
0.4730976134599393
0.5221949075817124
0.4977670463537989
0.5255305315309207
0.4840745853773358
0.5317468890526746
0.503563215351533
0.515452838194968
0.5220428977709942
0.5169572427718168
0.5095961614266569
0.5085011073665614
0.5457848502767672
0.550692063363356
0.6007163360895886
0.5839909424867503
0.6227984157887869
0.6035057955804015
0.6187222371463126
0.5439304728831093
0.5893991237491376
0.559464826850756
0.6224590872688085
0.5677292509992912
0.5871257122519741
0.49655046658598234
0.5374481227228658
0.51248926308972
0.5236645514301801
0.5020554641513433
0.5141355048559199
0.5011678446891824
0.5023287541733747
0.5003449602401246
0.49353207433684315
0.5030037200114139
0.5298490375527346
0.5600610105351944
0.6442714479394761
0.9024697988770779
1.0
1.0
1.0
1.0
1.0
1.0
1.0
0.5846343083148169
0.48661483434531155
0.5116922282603592
0.41820480684839867
0.3926505112869724
0.31087048362441533
0.3510631363830015
0.3139524464971354
0.33647706562607205
0.324339991237662
0.33347823417597117
0.3126298602223539
0.3026709939528227
0.3068633968149224
0.29428276088352445
0.3166335409205381
0.29143607370734925
0.29815674820852556
0.2575976937913214
0.29617552904058264
0.26378002176201726
0.31026864871307847
0.2826761788096329
0.3167613930018639
0.2958741378222404
0.3507557026155984
0.30865338410185866
0.37453253196911607
0.3834185600734572
0.4568640884857761
0.47173342939874097
0.5784153076758461
0.6251206691358202
0.7369224998417152
0.796708389537909
0.8841977112301074
0.9376475573933141
0.9400751849202086
0.9141369231713341
0.860775952990046
0.8227448824221737
0.7420251740699415
0.7081363339280845
0.642906960466523
0.6532729905820279
0.6034064093185568
0.6272549800985248
0.5967197939469652
0.6243093189972112
0.5620761601512874
0.6173529379111808
0.548838059674639
0.5763724695172616
0.5358582034631384
0.5497840863895512
0.5240972739572578
0.5346095813487717
0.4930694731611781
0.532918050753752
0.5155582285227559
0.532406911434179
0.5407300778213446
0.5143533275859523
0.5378610346535575
0.5601512629634032
0.5671460958265337
0.5354934250281885
0.5808791328255591
0.5407917323340443
0.564063136802421
0.5260177397906693
0.5652757395871566
0.5127714098438421
0.5418703550628784
0.49545345860135076
0.5354186825226835
0.49650575243389355
0.516541296162858
0.5012796710985771
0.5140358536940602
0.49310910729383045
0.520892806723158
0.48083352298374765
0.499014662730431
0.4832171790358865
0.49420326633742295
0.48426334538309324
0.5063452053905537
0.5065592583696207
0.472371792873879
0.5061141312941814
0.4765829526422605
0.4813283243963659
0.45832880953920263
0.4988370037599261
0.4632549643360463
0.49873471749980924
0.4597360721023306
0.5023557886162693
0.4766745678844494
0.5033116413006435
0.47457187739944934
0.5423554772488565
0.5097409367593249
0.5513877921334608
0.5540892119023868
0.5900361198062001
0.5364247877887596
0.5500777454228467
0.5138517388297628
0.5321234995592694
0.545439743411997
0.5498367746691978
0.5346542204966056
0.4815212448514349
0.47429318741526194
0.49344304298025454
0.5043157700071976
0.45100162170619934
0.48568415639038387
0.45751584668575757
0.48770245280038205
0.4543291884396205
0.4816854540440299
0.4690645381898927
0.5351798303270752
0.5468921922629922
0.7550291826625297
0.9612428365921296
1.0
1.0
1.0
1.0
1.0
1.0
0.5315535576584397
0.4757974213705782
0.4444715940444494
0.3708165934118096
0.2892811441815687
0.3059458990198853
0.27802634493023853
0.28559701588744224
0.24169609106764695
0.26490096268660457
0.2544938911723152
0.26237966323223516
0.21038958239886218
0.2662326493253976
0.21307811947591362
0.23955154336260387
0.20803791258532822
0.23894687768177775
0.20514204853693602
0.237596036435124
0.20172876763960454
0.21437136733952525
0.22339105496714134
0.24934146417401398
0.2193602589667886
0.2519721360027509
0.27137121074983256
0.2958401827587069
0.3399989280525081
0.3808527357570057
0.4591395779857049
0.5215351394777776
0.6164488914054704
0.6788630286414932
0.7614042380677085
0.7728653797353289
0.831790123429516
0.7620955098330653
0.7587932028371942
0.6627786926266401
0.6365256483756079
0.5726235160478581
0.5779790887677341
0.5186640096475743
0.5360460771222865
0.5136749139734703
0.5192567749778696
0.4922956744249082
0.5104581508741229
0.47215183808697236
0.47058281176629857
0.448375701130424
0.4419853489377659
0.44142215664039935
0.43349429138470824
0.43298265283362786
0.3821904835910142
0.4203527030993981
0.3930655638362473
0.4094179712946954
0.38932376926900364
0.4198804341054222
0.39340039633238766
0.4346113778863069
0.3960689033258623
0.4398282255819835
0.3982273809653164
0.41352950291193685
0.36889450433435295
0.41195711614726827
0.36987240317512954
0.4190160827131614
0.36920193225844644
0.3881806475045421
0.3781114890932153
0.38750977897475264
0.38784362080747004
0.3875696952509002
0.38550879365856927
0.37326807284660113
0.3875882709104189
0.36176356448367486
0.38684221451705325
0.3521259424905532
0.38102200455151886
0.32959041542763073
0.39106170406206575
0.3377684712693635
0.37067813859564425
0.3406432160226688
0.3625624747127996
0.3408137058525974
0.3791756699287353
0.3378375650015175
0.3618701474510089
0.35129922998370616
0.36598354502442254
0.33950976500871494
0.3739647248640531
0.34731741752277057
0.3722688139051606
0.37607339861392564
0.39918616489522335
0.4249910087625982
0.42725252201498376
0.4629754943642802
0.44991098833656046
0.4338252734842151
0.3975405178334498
0.428961903498863
0.4062617284502287
0.4544006221559103
0.4120065708449763
0.3991660317703494
0.3627390722239611
0.39257893985863596
0.36090970426582797
0.40138092999506314
0.3504826801945903
0.40612068644522176
0.3563548529470058
0.3971217267927615
0.3718541772192614
0.4009599192229585
0.42241127452835103
0.5590587443274189
0.7809314632658151
1.0
1.0
1.0
1.0
1.0
1.0
0.4535001243463396
0.3953985828890317
0.3512272481923494
0.3321812419849607
0.23873165321368087
0.24589750116376002
0.2160098199689347
0.22924830173707708
0.192104891811205
0.2193430321618602
0.1750085398996874
0.2145955323149559
0.165495025378942
0.18848934139469464
0.15845089217216174
0.1794503280297864
0.13572018265135738
0.16026384607530403
0.14666061531458113
0.14945681341806924
0.1578622205550082
0.17304803863249432
0.1738161748087718
0.17990144280697193
0.19390381869813367
0.19774803741873842
0.25398910522651724
0.2642961474122921
0.35774381475572226
0.407461898977294
0.5373905741991856
0.600336022287917
0.7195212695569082
0.7099623111735431
0.7547505216458479
0.6682978122588523
0.6454312491535451
0.5622557219086921
0.5290041519129456
0.48005287494432364
0.4764634358292711
0.44637086622142164
0.46134326591069275
0.4425385687769626
0.4276228992087239
0.4187257800588317
0.40875665032782704
0.4155470823957611
0.38953007578711346
0.39942793681307825
0.37701921257226284
0.38505585584214463
0.34407099929847107
0.3874916659138298
0.3639205749560766
0.4019350425585532
0.38477413138062355
0.4184619847934745
0.3950825229866922
0.44338167405139
0.40024644255801595
0.4468676738697325
0.42199988496198726
0.44183137833609704
0.41018911771162936
0.42444193877525205
0.4037812890213058
0.41342515625057163
0.40805734280687034
0.41197769409811097
0.4067180667842559
0.3997252843451832
0.4033690467813287
0.40231224974171764
0.4102023911492575
0.3827211389703802
0.4010595765022428
0.3734087056710935
0.39661520966335573
0.3787047665598899
0.41042471808187403
0.3560607874303837
0.40587164233512907
0.3801247263026535
0.4200341210846482
0.38659752442541845
0.41838578123187775
0.37923477647187653
0.41487889461489014
0.38897632111041347
0.41444134830722523
0.40011383766735553
0.40015266873182637
0.39886578381300897
0.4066813236722684
0.3980524128286958
0.4091744843797994
0.4178187591287049
0.4079635050442273
0.46701995884064457
0.46944010134077185
0.48999443097669726
0.48927370730611364
0.5090423333896685
0.45529638640582465
0.4648188149973257
0.4454373745951045
0.47497445695862905
0.4535263088008355
0.4850877064943749
0.4038199032415929
0.4133293851650638
0.39702154107122184
0.4281001913233341
0.3857520324033784
0.3963066183294862
0.39790531848703187
0.41362152343585407
0.4217007758856293
0.41265803182537086
0.4288836604688287
0.4251241038961126
0.44620552558871535
0.4939373788596287
0.6389643742754121
0.8141901163096463
1.0
1.0
1.0
1.0
1.0
1.0
0.7147772668262988
0.3727928443164924
0.43458034880969293
0.396611476337938
0.36752807658110404
0.30248925117271913
0.332029439882766
0.2975577564040394
0.32217689200385485
0.3039750633688271
0.31644906323523186
0.3041245570063484
0.300081551678511
0.3021222158692563
0.27456121491932767
0.28755200704785727
0.2789063779806978
0.2799628652684585
0.2721376881244635
0.2897541825443257
0.2518511626806388
0.2882108111455318
0.26237765821688164
0.30487547117225483
0.2642961482047016
0.30515563114994243
0.2817648352447572
0.31753451242167097
0.2992046571133922
0.3495458267519972
0.3339542871739821
0.41653634338647816
0.422564296945542
0.4852275083146445
0.508418388940688
0.5978936411252191
0.6410883324710127
0.6997171333302938
0.7290106872183513
0.7446124005004673
0.7443267215433051
0.6858315835549795
0.6791866340083185
0.6089395314586943
0.5897896411686139
0.5164327900223661
0.5371192692803902
0.4843849253734887
0.5011594424382497
0.4652350139722928
0.4992329425051992
0.45085308105932126
0.48944429857726773
0.4577774388507868
0.46752583689498384
0.4324964339148319
0.453505723780031
0.40216890568444247
0.425533703088443
0.40252293202798806
0.4050895079655019
0.4020121217099287
0.40769854620814455
0.40514661994382084
0.4030279054301246
0.4142456232098116
0.42300109548581266
0.42143102701299356
0.42763019395822044
0.45670883462504996
0.42853362491752733
0.44683709594073406
0.41767921227092397
0.45518085226869764
0.41205386225459895
0.4327798756814703
0.3973488634260633
0.44085022309000516
0.4117189038705966
0.4469036382330298
0.4009325988557119
0.43769930393079387
0.39935531740190977
0.41865856921671407
0.41265400797536744
0.4348067541343788
0.41822529690704496
0.41339438747585444
0.41053708024667335
0.40182106851930655
0.41703716723370743
0.4086187106621306
0.4132845092692988
0.39498620236190285
0.4274435336461943
0.395903494034882
0.44086005682309126
0.40152434830564115
0.4327517331603053
0.4075835512849502
0.4485149228963339
0.40878873619149336
0.4328843662186129
0.4205732623938121
0.4431338806561998
0.4081946223821661
0.43698439258477295
0.4130433962913219
0.44017603260564087
0.4455719182906369
0.4699294234075782
0.4816610695388591
0.5062071272344724
0.5175641011280869
0.5185396656733858
0.5147743438020093
0.47918649165591026
0.4769075840052038
0.4832900866933126
0.5100276179307166
0.49514978948838706
0.5121606854550618
0.44229617840760227
0.4554176910947386
0.4360257548112142
0.4644699459486269
0.42110505924757724
0.46353209846004073
0.43374169621826597
0.46508576136771396
0.43085277819499074
0.4423154408186469
0.4437917460420461
0.46585660748362023
0.4657700947973429
0.5115279150283146
0.6285340722469452
0.8303666357082207
1.0
1.0
1.0
1.0
1.0
1.0
0.6619861215346667
0.42753176652714703
0.4736802100911358
0.411242067842148
0.381707864424062
0.33589627413472345
0.3455850302589422
0.30128745640082855
0.3286144931976781
0.29348232946055264
0.3217717269369772
0.2964316749264967
0.31755980596979716
0.28509599336008684
0.30268524061417706
0.2730917395837268
0.2824841517756117
0.2852725090868922
0.28351102531681777
0.28959207111313323
0.27589120834894026
0.2685089597381299
0.26757722267069206
0.2887152672358703
0.27390023819650067
0.3128818763565914
0.2825570657621537
0.3226697029178004
0.3229458930512806
0.36458040297192584
0.35732575058780774
0.44068583294932884
0.4457552253462689
0.5248573844881912
0.5533148739584046
0.6414642810789017
0.659708030910285
0.719796171055847
0.6719763079539517
0.6856978503655249
0.6385463476880096
0.6123543284036597
0.5687243025851362
0.5440533408161858
0.5272201167224775
0.5220832354580838
0.5160707426285651
0.4944025687480396
0.4943353029061558
0.4825360922373233
0.48811947221488544
0.45751647520827515
0.4720139980744028
0.43667583661939136
0.4681762388782745
0.4272159543531985
0.4488857130660076
0.40497321651947243
0.4396414561981666
0.40503174978130285
0.43800541373522084
0.4102168319293801
0.4389281273252682
0.4216260896183829
0.45869187569869735
0.4230008018708954
0.45912496763592225
0.4369204108281985
0.451822779764582
0.4197579047054136
0.44219847876324864
0.4295879303086515
0.42170901285498114
0.4367030524128291
0.4194680959071177
0.43671798128327916
0.4102903220277798
0.44376072615945095
0.4073026919175472
0.4256829368102828
0.3978772516446362
0.43807633448731575
0.39681234392480846
0.4411090838364042
0.4017166045576726
0.4314850927498185
0.39872709930723094
0.43370258349960605
0.3919316851462789
0.4279987642013169
0.40335551361940825
0.4267050437355914
0.4075596773534603
0.4197947090423909
0.41184576195067163
0.4225155847416384
0.4158123862811178
0.4099295958657959
0.4310342529658122
0.4095177243546348
0.4375589262950781
0.41262657861149776
0.428114620709521
0.4145852974897758
0.4410738179665821
0.40738850937310317
0.4624712859761998
0.4452152414991243
0.49301080793334073
0.475600053350078
0.5191438275220062
0.48733461540126866
0.49093919662984853
0.4572345190047956
0.4776469381706928
0.47381367652643946
0.502748075138877
0.4689026252203766
0.4556713226921681
0.4229478016232231
0.44119312767696206
0.4260168547680763
0.43616654431338525
0.4428825411218086
0.4226645373929749
0.42752594307517844
0.4262194734989224
0.44803775887778297
0.4236776231514826
0.4728499483851053
0.47423559007716387
0.6195015605377293
0.7965493210508978
1.0
1.0
1.0
1.0
1.0
0.9290946901728938
0.4286184673651755
0.4344150165701303
0.42712173405717513
0.3537047367207663
0.3365210871830537
0.3186884863441962
0.3132152235086251
0.30746642993578954
0.29564950122297506
0.3026614645226198
0.2864621794788435
0.2887322941879413
0.2717227377256056
0.291537810785829
0.2575220275041414
0.2845615922322529
0.25012658790321685
0.28383264535003255
0.2568186991039809
0.2865382583257833
0.27695934367343955
0.31397894058435033
0.28989578866573884
0.3273935632199166
0.3219280186946869
0.37468996392435505
0.378300511838659
0.4418540957715688
0.48133766717995685
0.5320265483856829
0.5843083263548616
0.6435223919187625
0.6852721319981174
0.7154067822101057
0.7291080068411586
0.69509803662766
0.6712011290031953
0.6265036915577569
0.5936890804067925
0.5508929039250481
0.5448996749578159
0.4965723850454607
0.511742499247189
0.48883365622692854
0.5044827711638961
0.4613629302704799
0.49759770125195113
0.4671972532948012
0.4895316339460649
0.4629777705780044
0.4704340229421603
0.4437096129625199
0.4607121068988274
0.44151208030825406
0.45176058898217003
0.43908037175670167
0.4338066738115516
0.43648371529381913
0.4408508635317129
0.43953668715373057
0.4529094725630104
0.4721951649446036
0.4579185979614106
0.4860109406097549
0.46106380790075097
0.4780858459718923
0.45821540677862
0.4776776227405611
0.45468169905757055
0.4980216442222659
0.45977475700800036
0.4906241358359761
0.47203398968891025
0.48513758490080905
0.4498229167611168
0.48263570824034757
0.459730135135474
0.4815268400715711
0.4653335922212043
0.46329496357202926
0.45227425984730996
0.4639836497485292
0.4599153374983711
0.4589837049993665
0.4702643197391126
0.4538700046770835
0.4694054042584444
0.4560598334562398
0.4775645062852222
0.46433567827832334
0.48561609815330165
0.4488975770995972
0.4961387346608118
0.47048595555444817
0.49111442938682676
0.46269287144291377
0.49484489319714464
0.4660439106485354
0.5025933277274505
0.48602307892493457
0.5040600574954107
0.5083950685915795
0.5517674780439985
0.538827181378878
0.5762907674865364
0.5783626861505725
0.5825500998329111
0.5661796353788723
0.5450260737488134
0.5373149166006168
0.5412164245207065
0.558682901732064
0.5493281704159771
0.5341530999312568
0.48732288617250774
0.5198026807166991
0.4805003910320573
0.5226031543107325
0.4881705454521385
0.5177513493758159
0.48398281486824224
0.5164009691211044
0.48708282522116714
0.5195263713142101
0.4950848791713371
0.5537417006835679
0.5420032735656464
0.6580085964229615
0.8261514238211249
1.0
1.0
1.0
1.0
1.0
1.0
0.678589467746269
0.49115767280042233
0.4926912222969424
0.5102017381600027
0.4398782883219544
0.4473580462909622
0.4028367798734605
0.43627133723032613
0.40769255429478984
0.4300491254753663
0.4011758500416331
0.42773306403117317
0.3857639979747774
0.417198990881252
0.369798162043689
0.40168438192004013
0.38275265119612084
0.3968862255890525
0.39120158869235067
0.38323206539368726
0.37987753455532497
0.39551559631146277
0.398745046847573
0.40885601584047315
0.40831643505675574
0.41884696922623377
0.450027250924974
0.46741135835471337
0.5219304031365299
0.5466094584757805
0.6106080720109938
0.641906631734076
0.741071420414236
0.7597239883113142
0.8194089284663495
0.7943976587133348
0.795689355533608
0.7485221211422033
0.7237645223642531
0.6823771238750712
0.664758473551073
0.6127445659520909
0.6238228294972947
0.5980385772617118
0.6108678672436426
0.589355696906415
0.59932415963715
0.5854454065788957
0.5844336943944118
0.5862926522935905
0.5614160851196126
0.5698179238989722
0.553717868996094
0.550315551937607
0.542818396814462
0.5485438472399566
0.5388750661861208
0.5715760060714977
0.5427475680732141
0.5848607902135858
0.5468969907644883
0.5936675840857001
0.5578703490205872
0.5866227231408586
0.5474146237110793
0.5794162555674452
0.5533949773253437
0.5707723297183166
0.5555640791737171
0.5811484969056044
0.5483210754086896
0.5657844327863899
0.564529913781197
0.5695440654030497
0.5654761726956875
0.5555621694657205
0.5554870079710198
0.5473573143478246
0.5570852009241524
0.5462366324314004
0.5666616453171438
0.539658682664616
0.5653905378977764
0.5472423181304651
0.5635636210713642
0.5298830541078178
0.5600552940325677
0.5346152978424523
0.5659671288258558
0.5422178387434247
0.5661027752058302
0.5388474177671976
0.5746845394069889
0.5378647436658713
0.5598186188048982
0.555053026150677
0.5619091561627065
0.5583891334752724
0.5707257649349187
0.5743353099796324
0.5681858629630738
0.6086847660794152
0.6032112226355643
0.6341271076698367
0.6349319894586128
0.6510027239062369
0.6071588707958135
0.6291759443122557
0.6083731233181748
0.6396782857791887
0.6232429260381586
0.6413073566530494
0.5897973930792474
0.6053897912015327
0.5760165205703559
0.609830383152461
0.5804185045470109
0.6066941993381917
0.5873870942451525
0.6068792387161944
0.5968614335188469
0.6118260476945222
0.6113710354605703
0.6358078921934164
0.6675931587520659
0.738960259451259
0.9193469545181017
1.0
1.0
1.0
1.0
1.0
1.0
0.6173763017722368
0.6019130165703955
0.5940646113646879
0.5764009885706336
0.517179190300606
0.5262305538203274
0.483614563639512
0.5138027485037382
0.4745259826347786
0.49410626053417356
0.47505752672606694
0.48397195932367953
0.45384365722569864
0.4566930274051596
0.4568189913636111
0.4478370758021482
0.44454177102710474
0.4438568910814542
0.4426172640874138
0.4498216364561073
0.4619441035612524
0.4372174299490911
0.46477317945320096
0.45797378239219705
0.4740574301890785
0.4697505321341243
0.49962639071633974
0.48503001712973515
0.5276559227056378
0.5305464538877956
0.5824531645695064
0.5999165590401224
0.6571656816527133
0.6731001030824351
0.760835126558967
0.7853688496709179
0.8401289332362352
0.8402961351381986
0.8344401480135069
0.7987306852783261
0.7829483360496604
0.7481586050891632
0.6982854961431166
0.6927446890165899
0.6560533186350652
0.6541743410549372
0.6438101432905416
0.6467228207675854
0.623224712999075
0.6456300624130927
0.6148149609061461
0.6309323169282822
0.5977265283644122
0.6273202799631881
0.5840910047249699
0.6159606282840245
0.5851422148604992
0.6071322137072037
0.5860811962018176
0.6023467378304798
0.5913364515064033
0.6142633668855416
0.5992100637956647
0.6132080106484065
0.6132275689434278
0.6046928817164513
0.6120138472719854
0.6221303675973466
0.6141570037205543
0.6050801831056348
0.6198047958780519
0.5929590110583957
0.6120893601900587
0.5858364843857335
0.6023259578186193
0.5814718572245137
0.6004570695509877
0.5658693096586458
0.5901992434619706
0.5568920608160016
0.5900399267456624
0.5588744972611362
0.5828196775282212
0.5589655505052236
0.5845806604835239
0.5541463334512382
0.5762825713429074
0.5688801218350095
0.5770119847620543
0.5687266230840622
0.5723913768665407
0.570083730835771
0.5677646171940022
0.567677508493754
0.567230886660656
0.5770559222103727
0.5701736068895216
0.5800202966320771
0.5660782561972992
0.5776559326733938
0.5530578252432858
0.5892566524733188
0.5826986553491313
0.625111351059022
0.600049064198686
0.6384894950280261
0.5983569282527731
0.6051978513895578
0.5933176747340317
0.6229111392604398
0.6145040620829061
0.5979068138259568
0.555379042131513
0.5780030139645506
0.5614772380627425
0.5716430241316138
0.5657382609073298
0.5597018404461543
0.5609912948771208
0.5634080744385177
0.5647850033367146
0.5589365206341435
0.5724195480003124
0.5540363024382752
0.6140515994330686
0.6719189093443181
0.8424571371557997
1.0
1.0
1.0
1.0
1.0
1.0
0.7049144803419856
0.540585341029409
0.52748078694166
0.5241749635402562
0.46400027472811994
0.4528141737764161
0.4281818688651814
0.43384017553873344
0.4295126209133796
0.42945830145089275
0.42482820458535714
0.41549847517274685
0.4289259387559971
0.40941803309157276
0.4049137519671221
0.38143788105072235
0.4065597648424137
0.37561859799666786
0.4004162037636629
0.37475898253663475
0.4020001234739401
0.37840729840828746
0.40922519229456605
0.3880907616446009
0.4256593428775787
0.4131092476573451
0.4292619917090443
0.41689168270404214
0.44245804033770053
0.44309906847961444
0.4797295071609676
0.49724242835825816
0.5335874198543646
0.5569319263116281
0.603563916108447
0.649151850761346
0.6826996503563183
0.7346597990863717
0.7471488266857014
0.7655477514535495
0.7389171147660779
0.7303809034396473
0.6715771957898491
0.6622140680558901
0.6096274833506039
0.615422408126919
0.5735739909688496
0.5839556082198121
0.5600144170596717
0.5830634719476049
0.5434908773985334
0.5561155528305521
0.5360390688160449
0.551170218212914
0.5335131800583973
0.5345492590610117
0.5238397887052323
0.5205098275878474
0.5085935592975341
0.5076650749312761
0.512510281737904
0.5041705156775801
0.5204521562128593
0.5259858000170775
0.532977846898715
0.5269624358258383
0.5560586548329305
0.5236570906929596
0.5523301520676939
0.5305931615819665
0.5531981546521139
0.5241188254160675
0.552727128662515
0.5250297481555526
0.552366114424081
0.5274952599160092
0.5418163106621886
0.5161828439820664
0.533902253033473
0.5130445058114019
0.5263050120763353
0.5067309587488122
0.5160429597448396
0.5067838818118413
0.5104187646665592
0.5058459691674971
0.5114443108151402
0.5090029272098595
0.5000145933806308
0.511320655705769
0.498107982179234
0.5194712975215685
0.4999912553552366
0.5175539663700739
0.49313689011311446
0.5241188180715091
0.48898659570077224
0.5157361687443403
0.4869647105001199
0.5128546647422153
0.4942531526903853
0.5247690449363864
0.4920616296501564
0.5189852992891899
0.5139836437496872
0.5346831781803589
0.5116710915178945
0.5397511488388396
0.5403931848284234
0.5572102409071439
0.5647186476794633
0.570435111758372
0.5904441506479313
0.5808073727465713
0.5761972827729993
0.5514473694143667
0.5686904474308492
0.5480350515767697
0.572555596149271
0.5561737032285796
0.5638803046903715
0.5090739192608043
0.5384035089176682
0.5156283983959445
0.5336531822825636
0.5022899817317646
0.5260664916858586
0.5022878923399214
0.5297062575378924
0.5209768750307848
0.5283172577223852
0.5249379834618043
0.5314980964886724
0.53939113391299
0.5791184725073591
0.6369063857737463
0.7460469554955804
0.9085743641495927
1.0
1.0
1.0
1.0
1.0
0.784496038007087
0.4569910640837218
0.5030698751273306
0.4963616662461078
0.5013376528998876
0.44067458964059936
0.4561936179491786
0.43239698107865376
0.45116797372142053
0.4274656363588699
0.45108560411354093
0.44102451439476464
0.44037577003934336
0.4284394537365415
0.4297461036716655
0.4245449928846905
0.42079557911258103
0.4140518571078953
0.4108352547107007
0.4289146762283528
0.4102340374422623
0.4241553010587765
0.4137615556308786
0.43291624906643256
0.4112439772908133
0.4453404172827611
0.4257920302348162
0.44784510735227956
0.44593903614918373
0.47285363183244006
0.45514848336344665
0.514122804974916
0.5136887291254991
0.5695133065243473
0.5844268507532713
0.6441716565590836
0.6649427205297911
0.7138145694627194
0.7300021553212609
0.7578619007955778
0.7557989836677355
0.7410857322035833
0.6997817794818006
0.6787041136433725
0.6531057107778736
0.6115941155594055
0.6019153536692035
0.5709026832681501
0.5867277709210984
0.5512813213621927
0.5695714518099209
0.5364078615734068
0.5592498696868248
0.5314902861840115
0.5511616537160944
0.515371530013409
0.5405078016034945
0.5115161737317271
0.5374728251727984
0.5001058533611675
0.5178420072138963
0.4923804912678972
0.5120916475829151
0.5025688844986347
0.5191787904530767
0.5128531332458814
0.5145887207770994
0.5115951338861829
0.5152288419748187
0.5166710326003738
0.5124890603019081
0.5244120642401937
0.5132806917909514
0.5255117439802113
0.4935670805918907
0.529044816586209
0.4945182595739698
0.5101799302815336
0.4916987986783753
0.5119060120255637
0.47931534943038023
0.5019346782267371
0.47351938937118987
0.500662916467388
0.47095301602025186
0.4950562577153569
0.47432701080616163
0.48817545352290975
0.4762083443135315
0.48365847811747786
0.46819223384586106
0.4882404594081432
0.4799499990359778
0.4726680395547036
0.48416263845919205
0.4845960931136101
0.49698229506000774
0.48234107789405656
0.5076388237823497
0.4843927693424662
0.5095771793136821
0.4979052473593991
0.49990057774025465
0.4835820342932532
0.5139231963096382
0.4823402404501306
0.5139695765633692
0.4924420360916465
0.5142497010677516
0.5009414397541155
0.5188877746565319
0.49829280063507175
0.5299822904852212
0.5311956013158068
0.5537842542145807
0.5640504405602548
0.5783522267727058
0.5835332137644126
0.5761552895704686
0.5579449219719276
0.5577731080263069
0.5770886084739553
0.5746396854826076
0.5926046379809343
0.5588245691479317
0.5442722084458256
0.5180663466751152
0.5593705012110937
0.5230424936865428
0.5490345364957182
0.5276547227102137
0.5529897112949559
0.5124860904564963
0.5543325417426377
0.5169631391580755
0.5493003371090073
0.53438889466899
0.5602959971964495
0.5746719924136336
0.6639650711425953
0.7854542619933068
0.9897024643090304
1.0
1.0
1.0
1.0
1.0
0.7109589977274144
0.4814991237513331
0.5011986497470462
0.5136746460535249
0.4548998765245245
0.4441820314452345
0.4040623295935091
0.44599086851880954
0.4088403380967325
0.4336326159169781
0.40491827871554015
0.4217314279394909
0.3892824513287844
0.40043795775518987
0.381731507557369
0.3879373944981368
0.37014462310135504
0.37876483550251194
0.3710650144424779
0.38912185920618236
0.38645931342837736
0.37796722028318464
0.39693316864869044
0.38831808708944937
0.40048615590714115
0.4020593032362195
0.4204678553483414
0.40534512883539414
0.4436836550685282
0.4396310285725811
0.4772144508586229
0.4841843011358783
0.5433328444751342
0.5480164010368906
0.6200945029529836
0.641275540249296
0.7039229247626357
0.7158529016905228
0.7627343419266558
0.7328167534225974
0.7335946609253589
0.6833111910785095
0.6653102208151862
0.6303303750609976
0.6133050142383956
0.594180637138494
0.5871199139270418
0.5834605674947196
0.5565572378827228
0.571265890371037
0.5525096023561837
0.5585727534723857
0.5367691747860637
0.5488122429433375
0.5256169278624847
0.550474806197103
0.5114073060329831
0.541997936757296
0.5097015707121559
0.5430052983092343
0.5194038905050038
0.5537088208186296
0.5268974528805764
0.5635392946888304
0.5368422685772742
0.5683121144206964
0.5377098315399151
0.553234324495141
0.5456700257545909
0.5461630953403248
0.5357335676625568
0.5396586410406141
0.5366830707838399
0.5136397838888688
0.5308000956035489
0.5113482343714166
0.5148276218453199
0.49473709434553914
0.5035574785891643
0.4851775397424715
0.5160425134467765
0.487559054428501
0.5128095222617188
0.48691520140433503
0.50734664901056
0.47548206467068804
0.4989859357575487
0.47473157366640645
0.5057661207460443
0.478393108858993
0.5086057297964792
0.49024604450115
0.4898623052606069
0.4817033510348819
0.5001992165594451
0.492869460309781
0.49581899481483244
0.496602726072775
0.48833838327673285
0.5014269902223826
0.4937060360995358
0.508496655929623
0.48641116433281556
0.5122911312157276
0.4912885024285016
0.5372852589176139
0.5202371698337463
0.5649093030311414
0.5512307149015842
0.5833488703544922
0.5288837859139205
0.5373462445086101
0.5168460840245802
0.5505662807530152
0.5365807395657597
0.5478216209136052
0.5152177144878977
0.5060046133293943
0.5005474756758638
0.49691414006277723
0.4920269670670683
0.5049500647935014
0.49656709472187394
0.4896523849785632
0.5003425805192692
0.49246732472161725
0.5111216728387162
0.4870394245175883
0.5072021879819173
0.5089833368869054
0.5830098556244334
0.6799810435592606
0.8901473878083029
1.0
1.0
1.0
1.0
1.0
1.0
0.44970086457040725
0.47420505094424403
0.46773994472926317
0.439600426214502
0.39463299435593563
0.3892929523513934
0.37339906196644146
0.37678353411289567
0.36077661947348594
0.361638399032044
0.3685643381583164
0.35174255896354134
0.35745658546849934
0.347000305142888
0.3633233971217299
0.3341697806502378
0.3621073672813811
0.32645364471863764
0.35889010754351264
0.3310857968257954
0.3588276757857745
0.3389025883614171
0.3796430839013535
0.3582703372755872
0.38300316654312716
0.3739274818273106
0.40261138291395093
0.3986520608879233
0.442498717482618
0.4540904980914974
0.503132051795438
0.5329549334098383
0.5799877425914103
0.6338876868933128
0.6729729783575122
0.719616771841691
0.7303660084922245
0.7458011369834843
0.6953889431135483
0.6932769166627369
0.6280651541148021
0.6203297490655757
0.575321739411245
0.5789149274748446
0.5391993627211874
0.56766864453602
0.5353765939485259
0.5521960358076358
0.5246712268243628
0.540889981076033
0.5127984578170622
0.5241755357248319
0.5044478120493754
0.5263059430200473
0.5024831395467023
0.5048647486540443
0.49708435077012353
0.5165865537675288
0.5045893615345989
0.5181552351635658
0.5312540018638654
0.5156459296722702
0.5399989075292273
0.5174731105895283
0.5460889589014656
0.5161742654537615
0.5495876867404029
0.5085247678670586
0.5371015986291967
0.5116742316066643
0.5293498066325361
0.5000596706944714
0.5351978695438572
0.5083625292506351
0.5405356173550164
0.4962777072083604
0.5237282162397232
0.5080482652499347
0.5242082097780382
0.5012225076238
0.5176647569567295
0.5079688438989682
0.5080745569084896
0.5151990589621127
0.4967268025217416
0.5020367845793914
0.4902031432803421
0.5058984658007895
0.4878331264709348
0.5191612841473041
0.4922541141749113
0.5198865956158784
0.5012426061091386
0.5314169523969997
0.4933649176299202
0.5309346443611478
0.49121156999530574
0.5304984271034556
0.4889606415705843
0.5235831157164201
0.497892881187959
0.5165134883893157
0.493449604229815
0.5209877698791783
0.5115131635565504
0.5221786613978452
0.5245590388174237
0.5404626242692079
0.5583587412624752
0.5662717914216173
0.5882651122003162
0.5863523413171834
0.5858059687048891
0.5360041599962108
0.570493464996043
0.5518733752575755
0.5775613257735814
0.5716956649471242
0.5700588544950569
0.5008232292925798
0.5432331863449018
0.5041663734281263
0.5274729672760843
0.4974878323396236
0.5134011467114282
0.4986766591155571
0.512218648629007
0.4880122105833645
0.5231548009736857
0.5097868189632051
0.5332441055833488
0.5785024778369021
0.7240319108563693
0.9232223404005969
1.0
1.0
1.0
1.0
1.0
0.5909976789507982
0.4294589372666072
0.4872994393100118
0.44576921873086606
0.41708596979715196
0.3719285511953524
0.3983577703397466
0.3624921490999469
0.38544560032998165
0.35710811375712276
0.3629489554533973
0.3374698910312078
0.36059512892043566
0.32594734387478735
0.340963097059125
0.3314043954997254
0.33607233031475936
0.3375793386900309
0.3382776372714247
0.33510593402482813
0.3400192484025314
0.3495837248145513
0.34548160547701096
0.3670203148640144
0.3534515083491091
0.3818874714247662
0.37255740388143244
0.4073986750169906
0.4089036222753613
0.4709163656898439
0.4633950416267888
0.5378310352762938
0.5529855355221224
0.6338413056727502
0.6480683607657836
0.7254525988955823
0.7146346208506328
0.7429325438763021
0.7126036443969324
0.6886472997814097
0.6378393920912105
0.625480320190683
0.5815127263498883
0.5686584646132901
0.5566266981676886
0.528802045192324
0.5332980838319586
0.52353488070516
0.5252307311093041
0.5029688451212885
0.522620100023951
0.4818879089630991
0.5096112604456751
0.4795158944548275
0.4920215459566066
0.4725736232856722
0.5004823793449444
0.4615638801553435
0.4984817486137462
0.4700850940043753
0.5022995513964554
0.48639781456227416
0.5069134186806121
0.4910248067429327
0.5182943143537722
0.49560562009680237
0.5045608836725868
0.5020962066472514
0.504189274299354
0.4999696813809438
0.5051321684461918
0.4915433614893644
0.48171434805697155
0.5037679428137162
0.4729319705487736
0.48872340405535003
0.4610993231230075
0.4877685875051817
0.4622791515943807
0.4884109668879303
0.4472706204116171
0.4873340092366288
0.4510758144584825
0.49209921590309824
0.45342070602541507
0.48460557775207647
0.459922237862666
0.48855107844874973
0.4608049650257353
0.4821042922387016
0.46354604726278936
0.4702910044254772
0.4676214993244394
0.48402290238335394
0.4737508002432861
0.4756921733633087
0.4768943330847071
0.46682424118171245
0.4888617860146199
0.4644452917323436
0.49362209330349377
0.47517527578569485
0.5057695471440092
0.46817433252831286
0.505116605462062
0.4723348651112206
0.5108206294604933
0.4821411412721749
0.5151135881867767
0.49546801075251884
0.5567291848423563
0.5252760026906685
0.5822429641722643
0.5679994701293658
0.5825341416889336
0.5454670075162955
0.5410597900514279
0.5343586881388869
0.548455669976365
0.5678349608688269
0.553366088900874
0.5336059606455515
0.494349414471427
0.5196267749707097
0.5058772558340217
0.5193485275030347
0.48790816796313435
0.5240648832989047
0.4890587642937512
0.5089128225521292
0.48565876974756117
0.5147898596883311
0.4969175053742969
0.5402152011236343
0.5386534712827018
0.6533585936312376
0.8001960422413379
1.0
1.0
1.0
1.0
1.0
1.0
0.40348920204831956
0.4985486286260891
0.4503359368676526
0.41663747267357093
0.37556845307244446
0.3898823073339634
0.3528798776383211
0.3879911964467524
0.3436643696752334
0.3701471632181713
0.32343806915302376
0.3626714158326895
0.31334781258932576
0.35542450130858005
0.31228205299777134
0.35723605775006384
0.32967593431822023
0.3572484871062367
0.33988889844895154
0.3777750568556354
0.3511460775023464
0.38985114778342034
0.3793770738767477
0.40320549006504364
0.4079981314692713
0.4404591011680926
0.47300507898866107
0.5183142341525849
0.5697932064369192
0.6163346014043347
0.6847566790775782
0.7112944686793119
0.7714303698733271
0.7721658621815232
0.782362622876562
0.7250465711915208
0.7228845214653689
0.6586026630539871
0.6707393616423241
0.6113910569799429
0.6144635739791783
0.5713238483545331
0.5939366662766757
0.5601303939382669
0.5894149894782118
0.5407941385512194
0.5681363388309065
0.5381983619258862
0.5501840066023265
0.5410192137910703
0.5315113323128565
0.5359175298193158
0.5235284539263618
0.5393093114562774
0.5241378641519069
0.5522164349277762
0.5350755963520544
0.5654233252815015
0.5383740171345248
0.5690942600682503
0.5399276500171215
0.5768406332449832
0.5378735821686699
0.57613288810965
0.5364362257105362
0.5656405232439587
0.5129822609200932
0.5605066949650738
0.5218074474402722
0.5354824825758266
0.5075015202738957
0.533851268874254
0.5010169250314993
0.5229234719998967
0.5134887561879512
0.511738016595787
0.5109456393944423
0.5051478712180455
0.516073112521015
0.5138925040818598
0.5218630260091842
0.502026769093505
0.5271363756549444
0.4979560267050111
0.5155869677976201
0.4976432292772664
0.5252851055941729
0.49328402683866457
0.5142041720667988
0.491927495644408
0.5256810496761114
0.4823323183164083
0.5348032847498382
0.49483967361845116
0.5094070052430145
0.49817849545432136
0.5221459003628848
0.5017014989626667
0.5104283549383128
0.4985373482666267
0.5162897839523889
0.5155325165083618
0.5178090926701407
0.515769009814523
0.5093563831757504
0.5290953875841706
0.5086837296725663
0.548966532119366
0.5504747133656395
0.5903063056040442
0.5752762906355204
0.6247052406293395
0.5906856681185079
0.6074273739273413
0.5568285989667505
0.5992451361284619
0.5764198039637884
0.6283427222949072
0.5828012124529736
0.5850896205662574
0.5269462490808652
0.5509891034177008
0.5214810789671984
0.5434104184095158
0.5259608383474118
0.5327632174815728
0.525130128030311
0.5231671340874195
0.5319707664324533
0.5249548398290111
0.5360766543957103
0.5390903974324021
0.5871683436432831
0.6538657801030199
0.8605457191415653
1.0
1.0
1.0
1.0
1.0
1.0
0.6056261793991254
0.46128871792474657
0.4725823855933685
0.5025834535941279
0.41666877874221697
0.42013641102580196
0.3722654688144316
0.40313847036167993
0.3800874570105221
0.3926444352148134
0.37831611435215506
0.37014345772488433
0.37040316454630895
0.36994589932285005
0.3770408352176977
0.35461352806035357
0.37312060337762726
0.3457551286083224
0.3633288674146028
0.34626082470924113
0.38124891096177427
0.3487756701175863
0.37902999918543234
0.36734613452364634
0.3966270051583073
0.36987184746299134
0.4101494171193372
0.376714726365861
0.42956079233746225
0.4235145704974608
0.46550975604879713
0.47538960394313445
0.5333252420195126
0.5664890996360176
0.6154440144795151
0.6674128117962254
0.7163949024409745
0.7632156802740747
0.7788497594270665
0.7839128219848608
0.7451981795259633
0.7309624918480632
0.6515844605095646
0.6691480772623348
0.5933640142434172
0.6156642204298608
0.5644057452572807
0.5926311735104427
0.532727616725137
0.5793042404494699
0.535208807212475
0.5602497658005392
0.5100830913648522
0.5447431633298783
0.49884346371127497
0.5317198002631986
0.5005429998611095
0.5070951289648387
0.5111540103539538
0.5116808743347951
0.5095465935472621
0.5316460475457696
0.5336200220450206
0.5327299445534901
0.5438727142836385
0.53769440221183
0.5472815074562858
0.5303035086200852
0.5522315075042192
0.5117834490500985
0.5512253839533929
0.5048209380262365
0.5498680776865046
0.5140292139622089
0.5378141705373795
0.4754996877578209
0.5236977908092543
0.48493550681010567
0.508785420161862
0.47291056213982124
0.49114897978207345
0.4773130376453071
0.49679531219222967
0.4756918507189522
0.4770779857878611
0.49656118629453594
0.4867612585918152
0.48452879505670454
0.49486818034531116
0.5023989528353067
0.4818866482072024
0.5054023935975169
0.4796231960256764
0.5035281557473369
0.4769181848660754
0.506954422254297
0.47997518772865566
0.5160834317173548
0.48984987795110013
0.5079675273147769
0.4803590407497473
0.5126480066688603
0.48378752541617176
0.5151648415019829
0.4904056111740691
0.5131032426309867
0.4931991113151334
0.5148474921343105
0.4898198348870261
0.5059938951843368
0.5019811527012127
0.5035344917780525
0.5084276520130776
0.5165614177573399
0.5436769718369707
0.55404859567825
0.5883556920310362
0.571421803394353
0.6075352633943626
0.582463658879653
0.5959552323244919
0.5386877937949892
0.574448728202577
0.5509505934852755
0.5840757393765487
0.5649193275953038
0.5822007571665488
0.4997302086324121
0.5431970700910267
0.5051113241144833
0.5255819006450044
0.4947418374878662
0.5281976472432144
0.49662451058967755
0.5058390229796146
0.5056314463728244
0.5176255087564441
0.5168854014806537
0.5190471766934985
0.5516694146125971
0.5554093437291662
0.6332496470149958
0.7702141825013075
0.9995012828431534
1.0
1.0
1.0
1.0
1.0
1.0
0.44000507317322457
0.47574677082932826
0.4699226484915533
0.48094697500019734
0.40024799492097307
0.4120543240033216
0.37449592913577906
0.3906257839129151
0.3610628100269258
0.37692717210518245
0.36869271816688054
0.35231788065037833
0.35090589478007683
0.3388570310463706
0.33775299971327355
0.3255259191042384
0.34783742987137606
0.3148197083662799
0.3381804061157655
0.3204786912742552
0.3527050394424688
0.32210381662737103
0.3623435601285108
0.32278397841266254
0.36731936667491494
0.3308966662341515
0.36508532953049777
0.3411896584504975
0.3901743070458871
0.35488732034327164
0.40593952027897223
0.4302770197832627
0.482625399288945
0.4967237065516536
0.5509274856805695
0.6007662302252823
0.6457654569499235
0.7025245664404421
0.7388896109328285
0.7704321301091618
0.7509246985059581
0.7610717335289824
0.7012669519636565
0.6964486468642814
0.6248245164567745
0.6263384539349706
0.5628140215228095
0.5875324545323636
0.5481123895729171
0.5858492179214385
0.5320658297989345
0.5628515311308557
0.5204655333735846
0.5366125551401325
0.5143460705802636
0.5264436569029756
0.4970487531617363
0.5105712134686491
0.4898439393813314
0.5105101853381508
0.5012854173635862
0.5122454004036255
0.5239320387482531
0.5131752114443546
0.5427935053183489
0.5348196523816217
0.5562952968370413
0.546565574488514
0.5593461397058088
0.5348496539237199
0.5554591563173638
0.5159643663533837
0.5436029554626989
0.5149910822692886
0.5476105739863147
0.49997006834090796
0.543160937854316
0.486834562469262
0.5085925449306734
0.4822132206451767
0.5128968129269171
0.48103907739994245
0.4986114967491143
0.48312729361373724
0.49594282545400936
0.4840084229543951
0.4754157069894074
0.4839176995467841
0.48675563045886927
0.4911385863216985
0.4701386074956875
0.4896903308350848
0.4732043734994404
0.5161305260150797
0.48977750505758133
0.5132248666252583
0.4795611607851834
0.5123274069382625
0.46607030360246526
0.5129589720129066
0.4749658256270034
0.514419052349034
0.48843295783199536
0.5300713564404906
0.4847953317445164
0.5107296712548091
0.49012986814921067
0.5168716351771567
0.5030278365773483
0.5044686852988287
0.5080778267234429
0.5283375659757026
0.5534683573223249
0.5765227088550227
0.5960136923466349
0.5825111406209436
0.6189536025360192
0.5468024588348436
0.5620873458387685
0.5488728431492091
0.5974629287902278
0.5683336339158797
0.5484460359925544
0.5067451613265828
0.5572891280294383
0.4840193590165237
0.5298611585290085
0.48033452492523915
0.5353711652189368
0.4817049324692877
0.5209119262685159
0.4999994111238723
0.5285647534591725
0.5140753049928851
0.543717976587411
0.5352381820943051
0.6946141442356761
0.8814356547130601
1.0
1.0
1.0
1.0
1.0
1.0
0.4124545726857404
0.43096571227558866
0.4168520967415986
0.47197002680743666
0.3583445679827573
0.37484785294998274
0.30648929466757313
0.3563300038401249
0.2988324457741656
0.3400690030283641
0.3073518678757054
0.32428485308343735
0.2817964983673418
0.3053326633008161
0.269798812651822
0.2876503370230568
0.26601608961378254
0.2837688260383268
0.28174969624297136
0.26580617942656337
0.292431637211279
0.2808126975529676
0.2864598885840749
0.29266664471744386
0.33619254799195797
0.29219184023595834
0.3596085480240279
0.3400567042768011
0.39385871456928434
0.3984257801611302
0.4839406864699504
0.49453630940583426
0.5799146705368642
0.6011244135062265
0.7075940093671849
0.733235757954484
0.7836778410551851
0.7506430890613407
0.7564417107200045
0.6883210278884443
0.6651027971194916
0.6088384226164142
0.582295282533868
0.5641662203670054
0.5314333549772015
0.5321459304135707
0.5235233714200358
0.5344927295267423
0.5057709295570104
0.5284069695652278
0.4815222949523122
0.5093635711583795
0.46763640964337166
0.4941182657512483
0.47264397424084176
0.5190609983930333
0.47503250951428744
0.5242855183479238
0.47521340282157987
0.528767412888691
0.4882992773913767
0.5329015811243916
0.4933008171703725
0.5317772712839409
0.4842075475523706
0.49409885928900954
0.49244346500903635
0.4777170988917535
0.46636661441458627
0.47925945318362206
0.4792746780014309
0.45512222671232844
0.48799317772749407
0.4615520839179569
0.4700333483526785
0.4570557887546167
0.47902596892167815
0.42946875993128375
0.4999320132204292
0.4314068048277188
0.47776993919230587
0.4350900552222464
0.48927769890139805
0.4239828398835687
0.4905478868551218
0.4350118534873303
0.4886110617396235
0.4528260016313802
0.48604851198942933
0.4601557996997512
0.4798440591167338
0.43978727617292745
0.4732874030759414
0.46821216879893146
0.4525716264750865
0.48054652238165857
0.44659596460161255
0.47757353908417777
0.466735768988205
0.4928157933390481
0.4658463423203245
0.5206081165051938
0.46024454369904466
0.5243912552144236
0.4733431453810232
0.5627387872662766
0.5530492877077487
0.6174944580786584
0.5903337196612808
0.6594460434153248
0.5851686135777641
0.6051286822142575
0.5708921749019853
0.619345516139926
0.6191043756747849
0.6134876974085346
0.5242207111014091
0.5361456905527132
0.535178284537137
0.5201470765606089
0.5366598481118314
0.5037396787718784
0.5344160349861697
0.5183478804304951
0.5253528423511954
0.5290865641286554
0.5632906692646467
0.5408066650516108
0.6641271381138525
0.8021570003989854
1.0
1.0
1.0
1.0
1.0
1.0
1.0
0.3732021037935972
0.49757118747200535
0.4650217368417463
0.44792288903131733
0.33609569188497634
0.34837045720107607
0.3311565755722695
0.3301597075486876
0.3234585411496675
0.32631900447156453
0.34375485117556936
0.2974571335504185
0.30711637372957007
0.2601369696385929
0.2821936832747107
0.2501389718056134
0.2538708828582336
0.23172538625764288
0.28761096747293485
0.22373176482160156
0.2947153322590998
0.2374212873334188
0.29127555128610044
0.2621456793461056
0.3169580910327781
0.2824230024766311
0.32522134410090897
0.3087594162578126
0.351202483061437
0.3792261779604987
0.4369938323003016
0.46426840487225596
0.5451354621278584
0.628826454361057
0.6968708177724332
0.8123342309089147
0.8373254203894179
0.8903334825522166
0.8551046165670554
0.8379523454830137
0.7554479669084149
0.7550737111311638
0.6210094882236715
0.6562201023086487
0.5599457451342796
0.5995686926949524
0.5515238271069199
0.5720200204259479
0.49966430883743607
0.5729134886899538
0.49307002248624787
0.5343987482560526
0.49855143821562276
0.5269076859240028
0.4977581288546828
0.5122722014831594
0.4879445625377071
0.5235262034513969
0.5253108212809647
0.5197419340075629
0.5497996206865448
0.520916553729769
0.5630629595375439
0.5271232133894641
0.5474081463882144
0.4936127537477235
0.5558292726489441
0.5014628054420097
0.5456946133776472
0.47009843851914485
0.5200523593087837
0.45882927949589847
0.5207026373275415
0.47540568325907995
0.5198328048506488
0.4469602582590423
0.5039311793106873
0.45994397023558575
0.46742423821549395
0.4519415187282009
0.4760824181915587
0.43876716231347324
0.4556815790966155
0.45271849182883594
0.45348668655979063
0.46951310912509125
0.45843105647539006
0.4749801089439944
0.44331572698540966
0.4696930681062777
0.423783068030784
0.4800055059013313
0.419500992802808
0.4874644338605253
0.4280308312837118
0.4812640842334058
0.4462514350630505
0.4888679586636103
0.42659668611187385
0.5039274402428453
0.46566969204347286
0.49679536336273633
0.485516659052941
0.5095972633852025
0.4788204648095852
0.5428013111545283
0.5774947739826976
0.5913370273063157
0.604124727184491
0.6398682738650917
0.6395045018775528
0.5881206892978454
0.5745878102589381
0.5507444174459216
0.6133782979647623
0.6002386683925217
0.6429811884078387
0.5385744211199776
0.5490838632055431
0.500073126016791
0.5661179064492424
0.5166866989359598
0.5342225142426705
0.5066793839243198
0.5586537318301974
0.4817028030954897
0.5492924162516485
0.5111202799979375
0.5316634554991907
0.5356406009891794
0.6292899540409547
0.7803089153069231
1.0
1.0
1.0
1.0
1.0
1.0
1.0
0.518135851933487
0.4204916115885299
0.5057453356148371
0.408421599763639
0.37562724085878607
0.3019167905440655
0.3258120212074965
0.2685091326990786
0.32330406451454474
0.26077985004994086
0.3037469009097328
0.22927103849733776
0.2554837261022661
0.2242056801494899
0.24661606961469712
0.20100735709141754
0.2160195165047003
0.1851548158620465
0.2044923838077321
0.1932532928182836
0.22114160898728302
0.23936812011208275
0.24014061619127638
0.252692223051593
0.23845424367276907
0.2886212122496644
0.2528230538758729
0.35162196668281276
0.32607302152588813
0.4528289503882121
0.48051203947088095
0.5946726404969146
0.6634332297018748
0.7890981547061336
0.799908763996634
0.9139300567761431
0.8538907734615396
0.865163463429037
0.7454884547359052
0.696693069229628
0.6215853245476953
0.589679738005419
0.5726569583961416
0.5355755765978122
0.5224982255261397
0.5160707549728548
0.5122701639700379
0.49471806670704915
0.5110281192790656
0.46238409880483006
0.4965680070730822
0.4513689711974739
0.4942107072469402
0.46176390638695225
0.5172751632130146
0.45920419666229717
0.5296997728731254
0.48638233713528256
0.5560485513114569
0.4898697361287897
0.5483175913719383
0.4880906694843962
0.5208828967312032
0.4915360269715956
0.527757417351357
0.4862031139402901
0.5025055589400742
0.47763673896913544
0.4889341600584851
0.4827210909847392
0.45907042934623227
0.4537077078878943
0.438385799041737
0.48254005187018667
0.4236279654947256
0.4451691102462263
0.4358022443684904
0.4546048131016649
0.41867661476832174
0.450867019980412
0.4303832192925768
0.4700556883016648
0.406153703931286
0.46316405489212087
0.4225534218015132
0.45998546060150025
0.4268289050552257
0.4561069305770956
0.42377956593728444
0.4425520143947269
0.4063724151146767
0.4454401501387566
0.4433505855584746
0.4318964173577565
0.4355413739475237
0.4441841233336336
0.44264377380662534
0.43458035699597736
0.4649864107176855
0.42552571777535186
0.4781094572795145
0.4380824433246274
0.4952488062333743
0.46437823902311515
0.5578313319000633
0.5178641887765518
0.6014584400983416
0.5606965040003313
0.61094038026168
0.5196403271342671
0.5557839830385409
0.5118878342436285
0.592668214416505
0.5331909157279073
0.5562785923059035
0.47131195918282537
0.4689056996625703
0.4543164576232119
0.47496305662218746
0.4482735504185059
0.4662481459024483
0.46395412446925527
0.43695106946735346
0.4750024699785066
0.4678691085830283
0.4862979314544663
0.4865298225482519
0.5761563570101095
0.6288887651333779
0.9573854665109071
1.0
1.0
1.0
1.0
1.0
1.0
0.8442873028820435
0.3422190595233309
0.3883211495357514
0.4435668734807483
0.32064014845493016
0.3207902146130244
0.24538698298626005
0.2557730283983409
0.22985498067715873
0.25996579531117414
0.2274595363608436
0.20875923774378066
0.22736316839375337
0.17999450983977097
0.19730787710763042
0.16603483858548893
0.19805325992103792
0.15230610884826068
0.22463064202097968
0.1678287048893301
0.23158494761759374
0.17549393969753754
0.23537853988013602
0.18691598378718083
0.24816411752641057
0.19424681529403548
0.2854878084078365
0.23897856320649752
0.2881298547531052
0.30348027918001835
0.3475332214747859
0.3814068073578252
0.4636498665549299
0.5271571317346748
0.597402707523705
0.6778850074108403
0.7608550985567171
0.8454158499635185
0.8670374849400313
0.8980436686073553
0.8287516838516616
0.8386992254919103
0.7448716297276017
0.7360934974239232
0.622500772523499
0.6409361602196894
0.5478980218302546
0.5800070713075351
0.5230810381774487
0.5648709050774203
0.5072013433191377
0.5660680260629964
0.492029842374038
0.5271956133891186
0.4964389580545796
0.4969074891542845
0.4698802319721101
0.4671391451268341
0.4527319905015643
0.4691244233552663
0.45972586411801003
0.45166065613247286
0.4702398021944851
0.467029445015274
0.47678826698974347
0.4433460452952788
0.47859999433004097
0.4344864348290566
0.5053585467768362
0.4660711335653909
0.5047365714418993
0.4478816283420091
0.4886746448846761
0.42278780487336876
0.48133237789495914
0.4138475499529597
0.4550362503871478
0.41520472993089463
0.453786216041031
0.39780024013792226
0.46620306564214326
0.41245799363690905
0.4415170285114901
0.41812680447248757
0.42780215095255797
0.4266996646726347
0.43001811849476823
0.4256110473181066
0.39405325872911756
0.42752905803248353
0.386182769202998
0.43118186783718604
0.38104391034986607
0.42562129152443806
0.38122619687688386
0.426898671270474
0.35504790576179046
0.42397577831294375
0.38380286683459697
0.42517614052269737
0.3825298408900756
0.44110752250758695
0.38143323900934967
0.43132479375173627
0.39567755626717654
0.44273417005296584
0.4201619546055416
0.4536353485347071
0.4662384363766446
0.516305692911663
0.5329244342953338
0.5482233419246098
0.5866713330140352
0.5326373969407181
0.5108820586150784
0.49274569931635936
0.5522368324479766
0.507709830682395
0.5582011112738627
0.4783879773420848
0.474711269884412
0.4277443339636652
0.48615430546168525
0.4062407789821161
0.47285104110950404
0.4154337813530762
0.4549667056927274
0.4105224475152632
0.46836160626667817
0.41718954881135534
0.47579781582002045
0.47845778558179913
0.5257153348966774
0.6247000630656053
0.8729275850868049
1.0
1.0
1.0
1.0
1.0
1.0
1.0
0.32407468636845993
0.39556518860853906
0.38588901968167477
0.3830018580961221
0.2804313828596867
0.26830682638582715
0.20639982281324326
0.2610731861463448
0.21442163175809878
0.24829674714473304
0.19457591583202002
0.21915449346367172
0.17546921655702552
0.19875014892297638
0.1468295205967205
0.18603331481716728
0.15176179775349524
0.1754660184791928
0.16031193024473103
0.17061486086981098
0.18914355281353132
0.15975189656554506
0.18061022068460364
0.17996690493178083
0.22749528499404342
0.20071345116493838
0.23641478056328044
0.21722068468925024
0.2943803933324263
0.2727923239134957
0.3609865451534608
0.3470197219243506
0.46769479320548807
0.47169275211863626
0.5981394067138441
0.6277220667030268
0.7379947272494636
0.7830568708578222
0.8722848248486411
0.840285995068298
0.867876982696633
0.7818641094927472
0.7429068704183652
0.6939301679692071
0.6471674512396156
0.5942045841317122
0.5809283345365767
0.5740916807614366
0.5113485418159055
0.5425060962833413
0.5175831552915008
0.5420536795661016
0.49811630331862683
0.5470858288169554
0.48184401218964606
0.5328845045452248
0.4737188666191739
0.5264389957059208
0.4779709685583941
0.5471738144713059
0.4771094341667461
0.5317510447268006
0.5194035575658967
0.5489434179859969
0.525898718347902
0.5734944106281195
0.5465240943505107
0.5711033327206196
0.5496009796752364
0.5483735246429661
0.5540892645025052
0.5443777434280201
0.5477514707646702
0.5102280826964626
0.5553662345154925
0.5031064965015214
0.5327178891875487
0.4992845831594879
0.5433284813565071
0.47754842000887016
0.5455931983104028
0.4833866095600299
0.5228790965611428
0.4871164740199981
0.5075385722003816
0.45953026835497573
0.5103367230581729
0.47418724518046973
0.5068379399486067
0.4603099399429594
0.5164552979606869
0.4712966860214934
0.4987507479644904
0.4831645675032175
0.4970145246626094
0.49182010789451003
0.4957790723511831
0.5205687387324269
0.48616535406791117
0.5310442375259268
0.495595715389047
0.5373082575705055
0.49656756274961006
0.5513367525680655
0.5001894875545069
0.5647634398717131
0.5074004177858276
0.5598139314495406
0.5123268273046817
0.5608029523605697
0.5191263914665711
0.560735540468041
0.5274293562764877
0.5904537588919057
0.5740849964903166
0.6464054454680552
0.6238852890520821
0.6746641821163168
0.6495609471492556
0.6188063875175087
0.587970748173266
0.5974093296690607
0.6316822599692464
0.6010453259808782
0.631433078427434
0.5298051873150529
0.552469883531807
0.5028302841939826
0.5547401667301167
0.5137070117140317
0.5674093458623839
0.48536166634968997
0.530481874659862
0.47895194656879553
0.5348048537905228
0.48865040550269506
0.5542059642250204
0.5432653469072715
0.6750951406217074
0.901127780287226
1.0
1.0
1.0
1.0
1.0
1.0
0.5909383654882007
0.47836517583934307
0.4690977290885613
0.46113921963677623
0.3245277255045006
0.338173120851266
0.26446874757377037
0.31587549209215315
0.23452575629281952
0.315083347705857
0.21879599117010057
0.28320082978835404
0.18982496655000883
0.24376636828516393
0.1845870720633198
0.2385931694974745
0.18997130367166645
0.2303943133073732
0.15581314458404996
0.21391764017833087
0.22224590216365409
0.2378715676988506
0.24213658443235206
0.2635800756061195
0.2876546897349811
0.3146856421771909
0.37872282210135155
0.4493757044003478
0.5228744276498711
0.5878028383198464
0.7387772056904857
0.7641603226730245
0.9173126988318467
0.9162438147168611
0.9851783921773467
0.9178743020985014
0.9258133876430978
0.8006365166262803
0.793687435593388
0.6669745123192603
0.6558318579594301
0.594554940564453
0.6210017323474991
0.5598330384200092
0.5791330107056016
0.5535836653606668
0.5795751234154843
0.5333759512623577
0.5344641976769375
0.5262142670508471
0.5026948589896426
0.501510285719077
0.4830470818795267
0.4951649843423911
0.46437474071704976
0.4924827821628409
0.47773413419246663
0.5072887806346256
0.466606400102804
0.5251399111099602
0.48216391575177947
0.5288795847676755
0.49709742897746245
0.5371267016468458
0.4684828063735741
0.534266245601137
0.46284165195328547
0.49396501287529704
0.45768358577998675
0.49360221324101916
0.4450631551001976
0.4714989243105836
0.4324508586268867
0.4415942689556066
0.4519040201503669
0.43829807532707754
0.4421366047136517
0.42685736972566335
0.4399700842631141
0.42186590113018363
0.4482210348697545
0.42803914474319155
0.46545197286709594
0.426722131733768
0.48654010885338284
0.43551648940112947
0.4783350210669141
0.44839653010512615
0.5007540630489464
0.44577141906253354
0.4869091765974785
0.44124770845629546
0.4989199698537906
0.45028224834963526
0.4851072567634076
0.4645263348081102
0.4660712940790469
0.4698160396172179
0.48436154532070014
0.49044016245877015
0.49058005346444666
0.49611192667506937
0.4619568277018307
0.5390630313993944
0.5509747437046939
0.5931815973847655
0.5731990744241783
0.6497105051322054
0.5914334974609847
0.6132538177218348
0.5190349342684732
0.6038815037934322
0.5554509516114745
0.628769246400528
0.5418460990288883
0.5351560128746371
0.4627189538197688
0.5267610941719644
0.46353355997221746
0.5195816955899357
0.49464373706093195
0.4917796041202693
0.49183555878713275
0.4966026488267617
0.49726246215944564
0.4965085848703105
0.5567352371255642
0.6447902379175282
0.9482387065472462
1.0
1.0
1.0
1.0
1.0
1.0
0.9343949529392901
0.4001103111072483
0.4019362631080271
0.4891382483949346
0.316230976858606
0.33077629200046405
0.20464890368784033
0.26712807993134885
0.232503512816097
0.23240372101261814
0.1972407270762667
0.22275715007804592
0.18564560000648056
0.20231956725997474
0.17177482753638823
0.16336401104466763
0.16597176259219343
0.16252638518866264
0.1603854751797309
0.141360655468862
0.17471890069168436
0.1464749340144836
0.20430730578233938
0.15005877799556036
0.20618820262064258
0.1519298622381487
0.24205491829929554
0.19302536263299505
0.27909834828182556
0.2407039889403238
0.3443566764886621
0.3771246053581115
0.5002867766990687
0.5358696998454279
0.6642008709047702
0.7361028956366216
0.8385409807505411
0.864323341050693
0.8879900013125983
0.8400962653902349
0.7854409454700659
0.7501542636587007
0.6643367687491104
0.6109851044012019
0.5690616966569543
0.5962430803588733
0.5394192405581628
0.57284601144977
0.532276384000142
0.5874740714879823
0.5120498022626682
0.5593091690335619
0.4636010042866602
0.5109445196066558
0.42438197769090147
0.4821893303399925
0.45369665358339156
0.4733443568741661
0.4373856732677079
0.48589346245275544
0.4722635183064634
0.48045438552005254
0.46253969770028974
0.4689723070796541
0.46473321039582033
0.46205925978658113
0.4502190130375201
0.41861395301969095
0.44869759915416124
0.41283643737479353
0.46439144535094623
0.4115380497211746
0.4160664848219319
0.38861281001013054
0.429562886626336
0.3546461562882829
0.40963728250652653
0.3673446269392527
0.4206879815967307
0.35690994834801193
0.3868469205404986
0.3411242108003504
0.38769953731682427
0.32191381788884676
0.3800053687886485
0.35759150154076574
0.3648761476537107
0.3647917612884551
0.3852095324371449
0.3561655045599519
0.36753686715616335
0.3632970125307412
0.36245003298108325
0.4044378026035075
0.36737112373361
0.3931085497451785
0.3404278265925269
0.41371996884699724
0.33844579051495033
0.41019516053303684
0.34479945374813264
0.397655848113814
0.3708099373620066
0.4347727292967007
0.42189993539401194
0.4866805185018368
0.4752501188181884
0.533529391086381
0.4875527096145359
0.4703689197247128
0.42170375886134776
0.46630924710553634
0.4634698172192162
0.49700259647618045
0.46697221334754396
0.3800016906885605
0.41427653812753845
0.3859579324022599
0.40078662505407453
0.3557252565614532
0.38488703679884
0.3408812322995202
0.4059343652890816
0.3554284259827981
0.4042602642976421
0.36866834366530915
0.448959272683979
0.47598789849439366
0.7587899368190543
0.9826028211794746
1.0
1.0
1.0
1.0
1.0
0.6149556916918334
0.3701178373350388
0.39474618241764936
0.3525132496472588
0.26797220873711397
0.2192585498044385
0.21498951065272198
0.19439023852664192
0.19944615271624308
0.18430755839026017
0.20742153666322757
0.14777099823661777
0.17219285088357453
0.1151798162932082
0.15960128902200327
0.09732745663160713
0.14476284081091584
0.09121269713097328
0.15817339438457578
0.09021971680906322
0.16206726586444758
0.11443561690154631
0.16906606685961073
0.1420389214094515
0.18107851280740314
0.1644727559865855
0.21172791630736917
0.22092952341623326
0.2645906453209528
0.3356590930775548
0.3672819951191114
0.46354303061232915
0.537845656620926
0.6481111030919104
0.6901653932526539
0.7727326497983276
0.7443093994079722
0.7661278328208698
0.6841904170508121
0.6917621273677128
0.5702976305332815
0.5978183789442731
0.5051372977004804
0.5388543730977237
0.47473383092818155
0.5145890384752451
0.4561198497806127
0.5052325196186188
0.4609884342142383
0.5018747050247201
0.43398059387559307
0.4660773073405604
0.4347580760086234
0.43939312407118997
0.4309115329146957
0.44364783173000566
0.42403812361804133
0.4141747517805846
0.4389233295254984
0.4221534161120343
0.44614010857177844
0.42219014517382414
0.46642855389273263
0.43124009126688845
0.48417868858575525
0.41472643903617934
0.4946326645455872
0.4304482065902001
0.46231584187200647
0.4107288634007252
0.4654106712392475
0.4066553844825651
0.44509537878327876
0.3847928655795886
0.4280536637828639
0.38429897068032987
0.3991383246260701
0.3617362792706052
0.40337102650771295
0.3918889868711366
0.3579613294922879
0.38364075963970234
0.3569948911399251
0.376181527269333
0.36569840630611355
0.39285608806232414
0.3545203673545937
0.40446595799819685
0.3389303512409803
0.41151876921363123
0.3353918765184768
0.3972270255446601
0.34310243117606004
0.40581759590598676
0.3536824076794258
0.4117583876367913
0.35832620212336097
0.39745812157942345
0.35889842585347537
0.41527908052601353
0.3790213554698186
0.41895532948669595
0.4503556889723672
0.47830119570477825
0.49938129259811304
0.508123391127637
0.46002568396654003
0.43342121147950935
0.4775875525453996
0.46525062231211295
0.5097584017782485
0.4155523852572608
0.4134370526415725
0.37157256555386897
0.4239931045304379
0.3795303858287447
0.4122107533444974
0.3848074331278692
0.4218971434682123
0.38625306273774485
0.4343569856722622
0.3719561264335769
0.42879918349253565
0.4000928275473499
0.48932858140254626
0.5997355502306256
0.8834252431956277
1.0
1.0
1.0
1.0
1.0
1.0
0.944468784236214
0.3287020738948942
0.36380648744001964
0.33210779658949036
0.3013219684702967
0.20926956215795034
0.19434147206797556
0.13630497420470672
0.17734677644320557
0.13062985362865337
0.15820647596741155
0.11076345613736378
0.15481758936174397
0.09929491179966474
0.1335127346996884
0.0851229355085608
0.11108768937917626
0.07480085142189008
0.1063821489495044
0.08945677652941848
0.11209440700467255
0.0903026559697051
0.08862720411804048
0.10342754490426645
0.09537743114488775
0.11161877293697194
0.10497754741923124
0.14495062418601873
0.11370279660989606
0.17768955805535985
0.1607313818726801
0.23431553890464835
0.21612308390145193
0.3199555964793273
0.31826542000599545
0.4107393909071956
0.4383700497517465
0.5613736915480457
0.5893509688115535
0.7122667641080026
0.721551884151409
0.7732538521393669
0.7314850018522581
0.7223383427313561
0.6344154660029957
0.6178820299341288
0.5516683884956969
0.5258039727502583
0.4743002691297594
0.4560608666430257
0.4601488170294169
0.42262906397567024
0.4429614048115842
0.4219849419033208
0.4320007099948433
0.3967669472224885
0.41737880478094047
0.36322376802910544
0.40807122341058966
0.3498663221753825
0.3852496844482516
0.3416969311551615
0.39428280627628026
0.34359104362814863
0.40324894943151046
0.34857513192959555
0.38798002823414
0.3537878287032007
0.40476048316247437
0.3975220386365484
0.3952321672562979
0.38107092861330727
0.4069091971312907
0.3937086764708185
0.3731567632184778
0.38911929242646087
0.35595314449839266
0.37937860841123716
0.3389824924245411
0.3531284244911812
0.30517924146539455
0.35148878599998534
0.3138922042419699
0.3254359833907666
0.3076583687927375
0.3499318694660826
0.2800253865758565
0.349195266971875
0.289455882684324
0.3166504472493467
0.29865046126759404
0.3398450981520231
0.29338759847134166
0.3336738689970261
0.2914869264618922
0.3096725308449082
0.32751443699998467
0.3207393512379345
0.30922659685567405
0.3135494824360421
0.3150155842651293
0.29470731214162055
0.33695180968450594
0.3068258485102614
0.3221270493415367
0.3087400373309685
0.34339092012564515
0.30639821938610884
0.34601617450422895
0.3068834831659668
0.36401264481424167
0.338850619628197
0.41894782159138044
0.37583881175285266
0.4328897188905403
0.4252619373760552
0.4554059642075366
0.39283655651633104
0.41625307516045956
0.3834219164640186
0.4156107639720342
0.4336812986407912
0.4099303257785104
0.356427286366286
0.3361435219208795
0.3480512393549189
0.31984054243792437
0.3467693738015824
0.3149959570540218
0.34184137000007764
0.2932851666432251
0.3503637721588174
0.30578271348613806
0.35867326631439395
0.3248866441038877
0.36350076193247044
0.3591014965919449
0.4815677628733671
0.620822680480419
0.9074948591576316
1.0
1.0
1.0
1.0
1.0
0.8754711285606998
0.308016659136607
0.27595977055102733
0.3104034105884885
0.23180762925054976
0.18758895604998177
0.16363527196079475
0.17758889719820545
0.13071176850808053
0.16848972591226824
0.12103946797558236
0.16773577615856655
0.11866340393092956
0.14572053826178483
0.09573702225329309
0.12921990482663595
0.08478968285579862
0.11969438011297902
0.09465035855594221
0.12963359793825804
0.09992519189234628
0.13254272745612491
0.13142824524390276
0.13615592223237633
0.13079477710953097
0.15385372937377711
0.1530714062507371
0.17727036344107644
0.18223222516494345
0.21658970563589178
0.25398320577900013
0.28684599090296337
0.36270389654002505
0.3972779648841479
0.500779851126019
0.5471518598251881
0.6140383877781442
0.6114730138950897
0.6774980656633844
0.5909420264612036
0.5895368973135782
0.5007242449424776
0.49504337590228686
0.43306542480387583
0.429846529326543
0.3866392411066114
0.41784616757050924
0.36992893123918724
0.38603664923214936
0.37043036829772646
0.3900852079158864
0.35560664012084914
0.36967870806544
0.35668907056641125
0.32747512820885555
0.34464188878646607
0.3350004207547791
0.3246447655878965
0.3135523614377422
0.3382135784291288
0.31402834935489593
0.3384844422720844
0.3124526263229209
0.34108372288320127
0.3113587838289007
0.34512640985363785
0.30878167087149155
0.3584223580717627
0.29232606832147007
0.33752222157616385
0.29599366956024553
0.33341890007969044
0.2966505138454894
0.3385945785905715
0.3010663857844463
0.3251812369495918
0.3111320417484544
0.3068049511824613
0.30670963200357076
0.3031909625383903
0.3199730358145018
0.3020064272600006
0.32120620186337334
0.2955966890335098
0.31174344328095815
0.2941196902267911
0.3215851040698053
0.3018685088511389
0.3450816055018791
0.309503424664206
0.34244477740951695
0.3091321097676808
0.3399857164909192
0.3021719757065592
0.3459902466276067
0.3047813594183191
0.3440806846309541
0.31991675946379583
0.33836445413679367
0.3213512234009116
0.3415920581293941
0.32305522989973473
0.3520981002139286
0.3545486374885103
0.3567554275756205
0.3538066958592402
0.36882822355635564
0.3853184182127305
0.3955506959609531
0.4274628496215481
0.4167385356670551
0.44613359134854347
0.4007637887134954
0.41204130333574407
0.3829107710523781
0.4283737404652186
0.4054323393219561
0.4405260745547307
0.3949384116962242
0.3950479325596839
0.35753801520133616
0.3888705194841335
0.3642485318423674
0.39189284206450875
0.3731438949759887
0.3869558683479513
0.373404630821356
0.40679979490132095
0.3797783605000752
0.3928628620076551
0.3996901009768923
0.40257308414676335
0.4466950652177677
0.574761896711206
0.7478065077185695
1.0
1.0
1.0
1.0
1.0
1.0
0.6517017272845897
0.3700696778261169
0.3533696565246456
0.36185702849473006
0.2782011298490111
0.28318259706945986
0.24103624180406333
0.2579817115099622
0.24181519759328268
0.2352755185321475
0.2311506791341535
0.23694059823662256
0.21755763505752274
0.2119392168916713
0.21875336537329404
0.20572441399447167
0.19984346109232293
0.20292565474249563
0.20688663872835633
0.18099330935163116
0.21094411302372834
0.19268274780481803
0.21227391477744773
0.20539179148592618
0.23069924674996814
0.20819010933634557
0.25299004809564585
0.22938859416477006
0.25944625455085674
0.24858133302630767
0.3085822356824289
0.3010889187736261
0.3456589730791578
0.36056806709056444
0.43005952126227254
0.4823454425962
0.5477918029968281
0.5897148810296248
0.647215630686422
0.6817176923545747
0.6883641616972994
0.6811941452453727
0.6466189685451434
0.6289875618597711
0.5717085149641895
0.5610509935541694
0.5115787899737654
0.5192520822751271
0.4892208996891543
0.5033291909594044
0.4641077398923046
0.49204652577856056
0.4753465243329342
0.4896914023062231
0.45112373344964835
0.4873585386286132
0.44463885289214683
0.4762824312669497
0.452682145320212
0.46291485388163994
0.45525291285737507
0.4717460927821994
0.46403625146841526
0.4837250176078817
0.4694605115386373
0.47365152457533305
0.47704164491429724
0.47398483967427013
0.48029950108782576
0.4865571419453252
0.49468263562352066
0.46492115683211405
0.5016570762625632
0.4685051182757139
0.5042571216608347
0.4711796908719251
0.48235806606764997
0.46137923873896547
0.48663330589279113
0.44990547150726223
0.47294775285589885
0.44295379052481276
0.4714542185959485
0.4418263088111491
0.4536240996832873
0.45256035456145594
0.4560305143162308
0.44556536329557755
0.4678416212848034
0.46313909884517823
0.45591684992363096
0.45016668499452434
0.45339079128843335
0.4712935881484599
0.4552218481487632
0.4664967802789227
0.43764974201083245
0.4671010948987825
0.44189555596671787
0.4720881788605153
0.43244057338988123
0.472800775892354
0.45072047326081704
0.4835084622276917
0.4573799920574683
0.48567992584326014
0.45765578841382154
0.5251478129528236
0.5192339733544779
0.5371553478940758
0.5395426393524627
0.570692686318668
0.5436338692658765
0.5350443034425789
0.5097814940470442
0.5302767142354271
0.5320022653836888
0.5461507023166134
0.5511894486983016
0.5092787809122091
0.5044265159892001
0.48220941365055187
0.5097581056671154
0.471696342941837
0.49140518213893847
0.459797161893113
0.4882550905790321
0.4580124107396582
0.491188358575971
0.4478014061213451
0.49526148880026194
0.5006121558842292
0.5937666031862998
0.7342337836289013
0.9724716432290259
1.0
1.0
1.0
1.0
1.0
1.0
0.4595193973185257
0.442566562147049
0.44928170059500233
0.38753602214478466
0.35829770052251353
0.33322712482019085
0.3459582204745746
0.30702200383797207
0.3616542234683526
0.3153689936551237
0.34405787718948433
0.3068554313574973
0.32004045677039544
0.2836188208046183
0.31464360078182496
0.2791414536866801
0.3105103132790637
0.2837978021000163
0.2967708512452573
0.2916187111652554
0.3058496264073741
0.29160556273611427
0.3096571304988867
0.3129298969808811
0.3212626260128707
0.3298309439516289
0.34443721514123943
0.3689637288350866
0.3658300974842574
0.43254086887794835
0.45250849697493767
0.5195966960614875
0.5514119459334641
0.6258694022955236
0.664118909230775
0.739725914233879
0.7506903525835138
0.7844158078337541
0.7239944855542667
0.7077723093464997
0.6628713024391703
0.642689895840176
0.5678761165962869
0.5680817169090464
0.5206452545960988
0.5279218038935536
0.4981383553783602
0.5247376006736831
0.5056197176593734
0.5260908851133439
0.4983928947287792
0.48369279913993585
0.48012752430060734
0.46420520582697844
0.46859975974103224
0.4329692026476139
0.4691697100827249
0.43834924673613285
0.4575943604840072
0.4318208624288947
0.4612746876558056
0.44106390406080276
0.48167875750710126
0.4409813619716353
0.46926224270256445
0.45336502556045355
0.4634104115884233
0.4454508155233811
0.45505415206999134
0.43089421056829974
0.4554464082691613
0.4204598956823572
0.44374677904435467
0.4392907693653593
0.42725080649586544
0.4324273811169429
0.42004279456783306
0.4231557579821029
0.41397803116984927
0.4227361101108989
0.41501950939295124
0.42474227942518816
0.4030635855876537
0.4335056436382563
0.40955011992397566
0.4253335460321477
0.39601795170555826
0.4439094887167553
0.40230907085051204
0.43362694982724526
0.40375860956026416
0.4122664494562187
0.39957383052057815
0.43012789283797986
0.4000714192081631
0.4382472370290721
0.4208771156944879
0.43165170737708064
0.4264791136482774
0.42458827245190955
0.41463598609671226
0.44540969291861965
0.4762696531983739
0.4613263060050278
0.5024471016856694
0.49907207515346635
0.5049184465019687
0.46003767083242747
0.4762171248336603
0.4484290596988938
0.5118667829028829
0.47592503301790945
0.4699065613294259
0.41080922733871883
0.4394462225137736
0.43716870778828476
0.4351960824838937
0.4231901871703957
0.453934278858803
0.4346724959045002
0.4405008739973656
0.41496469144587067
0.44178865928876093
0.4519986254493939
0.5011803158359582
0.6004494639528725
0.7886235909250384
1.0
1.0
1.0
1.0
1.0
0.9669388311558869
0.42816916507357244
0.4115340742707736
0.43198392104428607
0.34970380744781443
0.3556066370680872
0.2810828982909953
0.31636421994012986
0.27681847172726115
0.3073930587449268
0.2519156601147666
0.2909307032290823
0.2547078745298778
0.2863997342513937
0.25373022688983826
0.2818100566094025
0.2541805985734366
0.2542936475021701
0.24723176801070013
0.24777492128819514
0.27348637435905554
0.23386639324744224
0.27029932075716057
0.26090810400711917
0.2602971128794961
0.2604874420918225
0.2944166822319923
0.2840259660528214
0.3362954812718509
0.3243577952624708
0.3913616806824345
0.414226846832315
0.48729444820371814
0.5083767796100243
0.6021876567225888
0.6267370711753202
0.6781677211789159
0.6554658448263432
0.6682854279283397
0.5964081286361034
0.585919923422486
0.5522446712736224
0.5353339979236831
0.5056100000923742
0.49773628316040286
0.49260146819062955
0.488210456802918
0.48617481977099297
0.48166687638324335
0.489056367901446
0.4673701790925442
0.4946452783060872
0.4513687153793933
0.4809773939908563
0.4523859004811735
0.474874878648835
0.4209080661437742
0.46916659390072724
0.442185678368476
0.45968517990747665
0.4338223753374228
0.4544121751130297
0.4258518786645452
0.45694135322763235
0.4407810548589385
0.45994893854473684
0.4608630724836441
0.4496946772616456
0.4484179977639159
0.4350892923852685
0.4483830719123292
0.4391448664339602
0.45246310360244435
0.4332226657029182
0.43609160238206907
0.41753875615306146
0.43625501496119334
0.4214306463850626
0.4340700859508053
0.41136679865972026
0.4364910898247363
0.4132787289151727
0.43112097568504054
0.409236844938549
0.4407265504163299
0.4089801455850476
0.43920235593058116
0.4170184451084212
0.43888233616383837
0.40825822914080134
0.4304351135690744
0.4244806882405845
0.43270304854074404
0.43016936349894397
0.43095968921999983
0.4313877460465255
0.4221993731266457
0.43492558560331107
0.4133247732224284
0.43247184564410485
0.4219191249539568
0.447339549256575
0.4510271028926983
0.4833127564867107
0.4707187881159592
0.5154209852463217
0.48406925313652993
0.4901636018435367
0.4571465411383537
0.4858273438129316
0.4702707182093889
0.5063280847493974
0.46181829533265095
0.47160931354484675
0.43674446314994847
0.4589477454760079
0.4469467955522157
0.45913334611481404
0.45388727189160727
0.4592781491682693
0.4532740892502039
0.46007523369490705
0.4729312047915066
0.4670784209596374
0.5081115912497285
0.5606060290624083
0.7268515032121439
0.9122377814404194
1.0
1.0
1.0
1.0
1.0
0.9796201909862436
0.5097480996524827
0.4448295322800348
0.4565803021589526
0.39884874955821586
0.3786056465240182
0.3527787528038399
0.35595998577652377
0.33250426438212927
0.349812176364068
0.327691511959196
0.33193419453016604
0.3285825109137823
0.3180680717189775
0.3106568315123755
0.30177975036245586
0.3072272691371524
0.2896259897910018
0.3204949802894623
0.28952873497822773
0.31208878145007335
0.29072292434544506
0.3303674049969743
0.30405767775932857
0.349262634489142
0.3477780222168651
0.388755243390123
0.4096691954540151
0.46418294658461673
0.4985162947329614
0.5880993894854342
0.6350887791017532
0.7235859698215895
0.7303449961296258
0.7410707737099113
0.6967145178620721
0.6687506658715832
0.630597869088197
0.5868853764447286
0.5742020399624203
0.5532841414449182
0.5537405599866076
0.5360943870446502
0.5528750257330166
0.5325107397502249
0.560793388266591
0.5288022802768938
0.546430136121739
0.5295554757020179
0.5425759265726533
0.5062040472952769
0.5296589165786071
0.5160923739975906
0.5242677452129081
0.5124463695580695
0.5354371817979267
0.517252137463327
0.5388953354133104
0.5174205376858712
0.5332559081461332
0.5268381966531404
0.5281602250026116
0.5328559930655665
0.5427896216539022
0.5444784328734913
0.525555916622465
0.5392036899821884
0.5161477428352048
0.5253112698794989
0.5114183318240846
0.5259029735871252
0.5159005837179682
0.5295925619525452
0.49272731508253464
0.5271564868920089
0.4984560160049254
0.5153016569780521
0.48381004863706767
0.5175162711253416
0.4894798400705548
0.5146331083482402
0.5035863327958621
0.5211716719937955
0.503356579981597
0.509507819589633
0.503476737132756
0.5090808769063886
0.5105336405549397
0.5059236703442662
0.5164867919778694
0.5036998817559184
0.5155490251819818
0.4940770460531813
0.5174795321242139
0.49829798616048554
0.5166174134477466
0.49827991159150936
0.5171292263823812
0.4881289105492012
0.5069618723940149
0.492377411600829
0.5254450821664353
0.5023630481229768
0.5539649334914901
0.5504677755813374
0.575232909798437
0.5572610980781022
0.5851394888392367
0.5768583260782302
0.557199659645925
0.5439825978541291
0.5459408215856926
0.5535075274907333
0.5778764651029669
0.5824338677937697
0.5568684949191439
0.5330539116642126
0.5054970980892547
0.5349932042052572
0.5018808051398687
0.5301367822809324
0.49257110792888315
0.5260437753332655
0.4985401069831993
0.5283282609084787
0.49159496343861286
0.5365946857191389
0.5016180464849543
0.5483630313363876
0.5537733565076784
0.6752175461533844
0.7982389808703478
1.0
1.0
1.0
1.0
1.0
1.0
0.64224552617839
0.5152524093782577
0.4946686673588059
0.5162421847309194
0.4473576025813191
0.437482436449271
0.3858859850464539
0.40276770756160635
0.3650883717532073
0.4005243954888023
0.3611713879421853
0.38584156414781934
0.3527550033637803
0.3670248703006883
0.33614977550642944
0.3588687573970886
0.32434184444455455
0.35739244308421486
0.32619595250904576
0.34491299944760645
0.33419353843221017
0.3506213753146691
0.3398646376683253
0.3583755327623209
0.3464207871568531
0.3576373166155905
0.38112430127432734
0.3771819929527675
0.3972712554771916
0.42555415758999765
0.4699930238128906
0.4906500819939527
0.560565885621715
0.5718854955271901
0.6498320009463273
0.6775199218817641
0.7399399240449489
0.7246393978860809
0.7435179106573028
0.6893029624920332
0.6794450968297937
0.6158793522548514
0.6107031872286306
0.5517598044998536
0.5609666626602253
0.5303948767028509
0.5311760360201065
0.5245776251921089
0.5115367846253546
0.5185180960751591
0.511178051736011
0.5153171251743573
0.5049050899454979
0.5022249560679217
0.48117249376144955
0.49284988633150323
0.46484554875739326
0.484101526480545
0.4435691144200421
0.4744838247635818
0.4352925479603377
0.46560499064028427
0.44011423443782494
0.4716742129103566
0.4399406224460277
0.4815207938486757
0.4578252566066219
0.47649714885711514
0.453826530058676
0.4861488343618571
0.4682194434784085
0.4892399608398638
0.4788760282190735
0.4886310212745619
0.47620952576114367
0.47117541573691063
0.4793666737882602
0.4532858959658467
0.47589270704720815
0.46101836024625953
0.4654371352127332
0.4626470856376389
0.47895752051728396
0.4503269214928145
0.4779444676410166
0.46106822135281583
0.48924332451645436
0.45185363771010484
0.46217916397585546
0.44155656771110774
0.4796514782077967
0.4505646777029999
0.47610031832971283
0.46049181564608654
0.47276179666350177
0.4537343722225873
0.46510890033624497
0.46571300536127647
0.47952176554642706
0.4752057165844068
0.45846221211621063
0.48426468565869357
0.4779538818291108
0.48454773516711597
0.487548724274946
0.5174603871096843
0.504065189165025
0.5410930649776718
0.5488026475483501
0.56166779460139
0.5157280290703321
0.5341085970556342
0.5034974930819718
0.5601404514662679
0.5201802020338367
0.5263016792034279
0.48090335439913856
0.5105522816199619
0.4784546016940599
0.5011995260898757
0.47536832752508185
0.4894380060536478
0.48879523016865134
0.49158647169122427
0.4903934964729328
0.5084617609772293
0.5207235577566297
0.5264870255739083
0.5673447760978039
0.6199868975155262
0.7823951261319095
0.9647626123087918
1.0
1.0
1.0
1.0
1.0
0.8930373249505272
0.5401404068788584
0.49899331904072597
0.5070869982057296
0.43347603176901395
0.413924989845738
0.3865080099799997
0.4090103004598837
0.37380152724835325
0.3969940689176806
0.36923659930488323
0.3857796813417069
0.372550191875883
0.36086557409720194
0.35567087133928116
0.3654614072389556
0.36218610031470855
0.3505276083123624
0.35263126728802147
0.3235407252833019
0.351740067010338
0.3496228594753442
0.3588837358391513
0.3219822767949938
0.3775307921938166
0.3482840730396785
0.3811620692473867
0.3593583612690838
0.39801361303929855
0.38853959046178116
0.44695300946122307
0.4601466434417761
0.5181755210485484
0.5451355881348453
0.6098842883072769
0.666422329672115
0.7169129422157158
0.7395770201485063
0.7445429491083277
0.7438583749246854
0.7174428237690164
0.6905929466408225
0.6376218146122905
0.6252251977374459
0.5892943269785709
0.605222418496117
0.558388276761492
0.5898736715710358
0.5673605421782772
0.5888477998591348
0.5608256299569063
0.580603630804872
0.5245986336884092
0.5687678440373428
0.5423188452361017
0.5578856265784702
0.5335937646523565
0.5518458976740893
0.5281316378872504
0.5402497242028406
0.5330626434237858
0.532048951383835
0.5299335350621559
0.5320092232642784
0.5304946403506173
0.5317738021994338
0.5456029842235257
0.5217423402831006
0.5398967496975866
0.5287495567921201
0.5419197353930357
0.507518375175741
0.5369082830852887
0.5076328193664531
0.5359600009028967
0.5093659961624208
0.5410374636040194
0.5038029255146762
0.5272406873114581
0.49606090506274186
0.5152050992682328
0.49773490849800506
0.5166751043023325
0.4930933425372891
0.5199822302984873
0.5119086491134917
0.5145664455454029
0.515649230836636
0.5224272130209411
0.5167213613613547
0.5115485626589009
0.5189296168865448
0.5044732152105372
0.5249206876462774
0.506855335088356
0.5283855821478476
0.4966809234110644
0.5224557847056662
0.49007446301719926
0.5299342647354395
0.5066256346461016
0.5318333792809581
0.5095304224023423
0.5414924013925206
0.5114118449623681
0.5597896341132285
0.5603966581837715
0.5789260924852132
0.5801026384951261
0.6045460169965946
0.5845109949100968
0.5940861969711754
0.5612748557792165
0.5675009532174611
0.5735262668888403
0.5828825681876901
0.5957879996242699
0.5713638737163679
0.55219085598309
0.5211219637664469
0.551537789988305
0.5302570482278133
0.5479935042334663
0.5236017796733992
0.5534033232836073
0.5194389007037913
0.5529176945538856
0.5368609335980558
0.5632457936287334
0.5562117939252842
