MLII
0.5
0.634898151895319
0.5
0.8085821785338935
0.9260551206848486
0.928134436647244
0.7646547684017057
0.5245693306087209
0.28124641798390326
0.4043966896257949
0.4325509240523405
0.4225138339015344
0.4325509240523405
0.4400098171521766
0.4457918890712481
0.4521704301060848
0.46796492680576296
0.4853581120760224
0.5
0.4969191634485754
0.5
0.5061743195394712
0.5105734922323308
0.5117569454592374
0.5210935568568845
0.5352693440554386
0.5494872035626713
0.5644606651683265
0.5805032605847751
0.6039304170039552
0.6122709996756497
0.6091127251225903
0.5990397769557847
0.6032256798632687
0.6017275169813247
0.5871785592755834
0.5679211948041051
0.5569290831861629
0.5366509670007341
0.5062802133492553
0.48232324358604145
0.4600411801974967
0.44628998713719054
0.43456778966598125
0.4163862521648333
0.4199899856172887
0.4325509240523405
0.42796765759543537
0.4248022916407434
0.4304329564455253
0.4399757057967534
0.4454238014902062
0.44586630492843327
0.44635514289892103
0.45750034097391457
0.4513151597153423
0.44368494096688027
0.4442458314913826
0.45448751123412423
0.45657433110038
0.44645805384258513
0.44409165444918397
0.44620481348258645
0.4426707253183958
0.4380679122602317
0.43309222208931486
0.43842531012589936
0.4470723784594993
0.447285816422261
0.4410776747927205
0.4394776309070714
0.4433809304046285
0.43420821058803594
0.4347483756514602
0.4397526736641746
0.4555350710751024
0.4675693686293614
0.45205104475607855
0.4577893952684848
0.4769732088390538
0.4896132064300108
0.4953327800917492
0.49436895495768185
0.4937026101227082
0.48384663531728955
0.4689999380522464
0.44693479908793954
0.4361247419844389
0.44034850427908295
0.4450878479547401
0.43460692613830076
0.4305915448151384
0.4412910450511712
0.4410845110316125
0.46918903407195733
0.5837539465235697
0.8080081735985175
1.0
1.0
1.0
0.6711669557130966
0.24862125436630547
0.42004871501671825
0.5097673656268402
0.4659496799550161
0.45300004866816074
0.44788246401275755
0.4425397462692654
0.4520553231556912
0.47456454665454545
0.4738704085780011
0.478700992228325
0.49441733524602915
0.502631895338375
0.5
0.510185284093281
0.527887107884632
0.5520862958990452
0.5574144268922858
0.5617495767311169
0.5811690493468842
0.6127825824656888
0.6367509451366105
0.6548996249935529
0.6626677632996921
0.6857445128464059
0.6951485872376313
0.6918098877592976
0.681448781598134
0.6714591165099989
0.6396868249617971
0.5948694004277841
0.5585914897258237
0.5410385026946429
0.5255050410656339
0.5014664431399023
0.48333398061271843
0.489309481571883
0.4901652908904873
0.4849528515199782
0.47909111413180694
0.48551481310935934
0.4965033332823697
0.4979036316869527
0.5
0.5095567107275201
0.5175121088636357
0.5147942685544508
0.5117541994471747
0.5136380450600937
0.5102409579843374
0.5215149893294713
0.5144465503486109
0.5094048572110677
0.5133502291964027
0.5035390570584969
0.49437250431949187
0.49369747466948866
0.500310590390072
0.5027182840396751
0.4955762452336597
0.4940354787807907
0.4920380317152195
0.5070877956451026
0.5011334189070675
0.4823982814338697
0.4911262378420367
0.4977040742254828
0.49093016880404006
0.4915170062424611
0.503406128268478
0.5251987193537807
0.5301189815579475
0.5323759601892679
0.5238311594856538
0.5422639645559139
0.5576823211331032
0.580964664972515
0.5670266057595852
0.5700685430560097
0.5674490759476595
0.5440023141496895
0.5107103525220258
0.49766199859921567
0.4870430372300437
0.4868368929694758
0.48818216168877193
0.4926498363485476
0.5
0.49061165630155845
0.48430166166570787
0.5672952333579655
0.8204706367099515
1.0
1.0
1.0
1.0
0.9734842582850993
0.34776664312969296
0.5240960034778759
0.6433645628647703
0.5241393661169315
0.5074944254614058
0.5096481004609792
0.5143330283724366
0.5173551099730955
0.5276300278845626
0.5219086377029949
0.5410283730735361
0.5507608392721265
0.5529468750539634
0.5541577696703199
0.5673986670641362
0.5856103256979454
0.5989671115944869
0.6160230632435371
0.6294631898639576
0.6587499808446056
0.6950168918545494
0.7010762241101232
0.7245430015335599
0.7777278411063959
0.814125455630975
0.8265041009784364
0.8524225553910731
0.8691498974106693
0.8685886977923503
0.8495627684283061
0.8144012090238728
0.7621336931962037
0.6914292646071062
0.6146859783767822
0.5649085375887983
0.5509192413726602
0.5422582580990416
0.5238548666467937
0.5058950828302595
0.502723488830094
0.512397207949758
0.5067844132064817
0.5
0.5068930499296969
0.5145297102228712
0.5131106337888286
0.5133876522754911
0.5157062934069749
0.5260699414730328
0.5258761247948691
0.5130704532821946
0.5077096107298409
0.5096883929924027
0.5165738883361729
0.49783596164586835
0.4903735279874223
0.49702534681943994
0.5015290670344711
0.485998019582823
0.4802589763320291
0.479060038071911
0.48047358047165617
0.4759151431519985
0.4746780712443638
0.4743594836465307
0.47668883353089325
0.46662037198081974
0.46164174039361505
0.4652797524700453
0.5008957040437413
0.5159312170222957
0.5109400421354813
0.5116608433232097
0.5351885832866785
0.5591610301191601
0.5689824513171875
0.5642410439846355
0.570255985200859
0.537009315689833
0.5197396963847615
0.49431557770419693
0.46337939566169617
0.44245500641209146
0.4319359143682391
0.4242286744421698
0.43901613369170667
0.4568871021060496
0.45770885008033846
0.4556462810603687
0.5782737179740353
0.95036342790908
1.0
1.0
1.0
1.0
1.0
0.27145743171454517
0.5309155864051205
0.6568099784476968
0.4945950084918535
0.4828983541659266
0.4996618301239371
0.49729824093282743
0.47673821713482206
0.4966565868411051
0.516239951331979
0.5266049666891043
0.5479428606555338
0.54561189445107
0.5503121426596093
0.5744652603687563
0.6087202400309888
0.6076702656695323
0.6243745456325609
0.6576103828046682
0.695953262610079
0.7311994493971223
0.7536004934814852
0.8048947922333086
0.8698556696524946
0.91589592360822
0.9284560380801942
0.941811297966523
0.9475797691087756
0.9398993454395249
0.8959214108310164
0.8289906339155433
0.7533428768362874
0.676293515933932
0.593765575139534
0.5322431079120642
0.5223567589354352
0.5087889286422702
0.49139133761950776
0.4750769424261027
0.4735252994464405
0.4788751399957265
0.47562741642098627
0.47172047713394905
0.4985541239956145
0.5068534386289654
0.49495574854663005
0.4836714162210415
0.4907384681933893
0.48980713005470067
0.4977902270955121
0.4854026410587139
0.4834269770075535
0.49035355014492793
0.47441777935554247
0.4460431166798773
0.45315318920221
0.4590954543439981
0.45982934144854337
0.43927519525269554
0.4283183208568605
0.4386298352710137
0.43877479771277283
0.40933985268396034
0.4108550332032806
0.4223330073816564
0.4335061865965441
0.4143271613771608
0.4172651022171953
0.43687651646590586
0.4711191295771198
0.4538982701312747
0.4619322868944442
0.48439125849599013
0.5232773604668186
0.5157241919305537
0.48337623154260634
0.44783199912671706
0.45323326215262505
0.40077116488099557
0.3789771388146936
0.34668134201699796
0.3665185984681822
0.3688508837149167
0.37091311593502485
0.34729564726550616
0.39359852342747403
0.4562536868172387
0.7524618603929774
1.0
1.0
1.0
1.0
0.32830840697684727
0.29781865101496896
0.6129732437065887
0.4015654287039883
0.37896727190940316
0.39182377355543485
0.4228599317562577
0.3892955599071727
0.40428304979305485
0.40083778632340356
0.4451558284699891
0.4405051600414639
0.45348735671605106
0.45883404727206684
0.5005487160704578
0.5088943677982128
0.5302378281146262
0.5428707151243429
0.5828975633584734
0.5973479987243576
0.6498502471222802
0.6753886341314259
0.7318403187450001
0.7768579720117866
0.7900737244481683
0.8094703074019398
0.8499812174157988
0.8632465970201739
0.8407525745166581
0.7827754602436565
0.7168172304669984
0.6477230166496358
0.5711036415833287
0.5025134846328815
0.4484258856429989
0.42969491220505496
0.39811084308287903
0.37901611363057325
0.37613678419073593
0.3884699744420387
0.3869731304416534
0.37309389343200366
0.37306838691764044
0.3996463763201279
0.40264310171833495
0.40322033625490705
0.39439357297162536
0.40413313128247885
0.4113427058615816
0.4029538076775766
0.39430324359975577
0.407058207480099
0.39326560175952335
0.3746686686643663
0.37041942274047573
0.3750616750213179
0.3909425037601134
0.3817444752072453
0.3680555963829189
0.36748335358467454
0.3757609288795217
0.38079217135049104
0.37478539262062743
0.3693818471636625
0.3719263432447254
0.3750825836198254
0.3808491073620638
0.4046810160099422
0.4282532174280602
0.4301339378794754
0.422282373533075
0.42314136255852175
0.4428913411343012
0.4795849756519536
0.46664715852643146
0.4420444690582852
0.4333924184434149
0.43813051370800693
0.39563340606445524
0.38608565753986185
0.3762219957737717
0.38769351274617153
0.3789952221051857
0.3889647728554355
0.385065005719776
0.4263374485538849
0.4735587315940656
0.7296652272074386
1.0
1.0
1.0
1.0
0.3357251017023845
0.2864089203825801
0.572497285031012
0.45902277061419944
0.42448992628600407
0.4220014206840951
0.45065737624951874
0.4333304906626852
0.45393841465854556
0.45367981827327036
0.482125079875457
0.4693668824116267
0.48319681840072726
0.5046490286987917
0.5443640369357686
0.5404330336995222
0.542032672646142
0.5559077091294845
0.6029619082891996
0.6316320578098255
0.6514386908203781
0.671159002990874
0.7274291544136657
0.7570790078911395
0.7825158592461783
0.7976890369494087
0.8219477333363383
0.8101163835778777
0.7918393259466322
0.7506671733069415
0.7125969530792788
0.6603888506156979
0.5990570975149205
0.5293857571843221
0.495964479321238
0.476418640248252
0.45732820150337783
0.4344934884802054
0.4324158990035917
0.4449622944220931
0.45070030491625407
0.43706479663402165
0.4499148612746463
0.46861665602614544
0.46973482428258473
0.46754803400192496
0.46138635934111266
0.46738722729910015
0.4717248833123291
0.4595156177835406
0.4560627112668557
0.46014876120983417
0.4553528089703446
0.43988504497902314
0.42713620676897357
0.4337517002805658
0.44091606872735856
0.43431523034527053
0.41825196489528427
0.4217399938544184
0.4330489712227269
0.4271283092333128
0.41940203995869263
0.42774812733284706
0.4309811979771706
0.4279749185872016
0.41590442098692126
0.4135435284784615
0.4359773545444175
0.45144349261707795
0.45506028641994095
0.45059051733080446
0.46739865059178165
0.48288949287367033
0.485249728601384
0.5116619558193037
0.5189342545469269
0.4877636087991496
0.4590077237458468
0.4443775270431617
0.4188308691112542
0.40657019188527344
0.3961162749897379
0.4035611759567451
0.40011706897622445
0.41512641695236896
0.4028849511481494
0.44104582453325436
0.5915868898934891
0.9612559903126696
1.0
1.0
1.0
1.0
0.3127931896483704
0.44389376721340834
0.5820534081985154
0.44458326123502384
0.44078420598066054
0.4351238766097557
0.44442074600818093
0.4430193617341424
0.4669264855078331
0.4565079384809887
0.4640546617393322
0.4786398154619416
0.5054201448281439
0.49766645889845335
0.5075188935169774
0.5267045236271036
0.5631550849271753
0.5673775324185968
0.5820849672413646
0.6051718957870085
0.6535110526863036
0.6864878724076776
0.725198473258019
0.7534861171853098
0.7887182987306597
0.816163015332705
0.8321554197640879
0.8406482671647459
0.8533153994130436
0.8104556044158271
0.7665442050527919
0.7042234450071599
0.6585942419600127
0.5985638750667157
0.5308532130892794
0.4857896726251191
0.47432639485360595
0.46439780848422246
0.45787786052800045
0.4490923888469697
0.44468063188483786
0.4520228910972472
0.4548728411431656
0.4538200216923256
0.46626830438150196
0.4768708343186877
0.4721821443882378
0.45262321242586234
0.4621598343550236
0.47580885377859683
0.4636930928492259
0.45660917724076855
0.4505274589021043
0.4563394060831749
0.4586539768705705
0.4342875819945234
0.42361708855190716
0.4389304316335593
0.43195463136904466
0.42742111224310025
0.41563083585544425
0.4120558198786085
0.42849684365311863
0.4214733367890968
0.4094870254874799
0.4225154354102728
0.4283386767532866
0.42067602983671143
0.43512826377836766
0.4480586696641402
0.4665223235528087
0.4615608512777327
0.47579467310043977
0.4976125091756236
0.5219200151852625
0.49851103405993713
0.4626281600682082
0.45601814257076256
0.45518345753680045
0.4193654135773602
0.3861452865225476
0.39383206950759964
0.4201720636486419
0.4196183841647228
0.39971561446323006
0.39871886531944367
0.42502819065738817
0.4974871913473094
0.6776022926035072
1.0
1.0
1.0
1.0
0.7952087387624122
0.20000906006972344
0.46724139597545866
0.5570858443541461
0.42408521396289245
0.4207493611773846
0.4312102825690382
0.43097188401272807
0.4293782385886463
0.4460897735301878
0.4616424044488456
0.46392886917046905
0.4561166692038787
0.4672608039542602
0.4893818362995022
0.5137171884864551
0.5152266385649831
0.5290393947070127
0.5509761459902753
0.5885731533222791
0.5940722157282441
0.612441477542809
0.6617998584755526
0.7061136466637048
0.72588853913763
0.7558171119875817
0.7657118929134281
0.7897888713021809
0.7902057103202864
0.7727811133396321
0.7528368045005969
0.7165342317605875
0.6535260108044889
0.5929155552091897
0.5345655439112821
0.5052013972760413
0.4737426731331179
0.4459971941988071
0.4346196163062571
0.4367512882389125
0.43385669265096316
0.42932142279130786
0.4295369860807948
0.4409842084033121
0.44408477063719626
0.4389692288718631
0.42433857994007773
0.44039751640541286
0.46232513665695985
0.4552905129206084
0.4421559164853255
0.4485136496800613
0.45165121119694723
0.4451968544471493
0.44426806144935294
0.4331565592008476
0.4175931341898069
0.41425179202157725
0.4072761625613529
0.40335787358411557
0.4094649561795348
0.4118847032148155
0.40136623546332684
0.40370987344912856
0.41280637585342267
0.4178965642002219
0.40684028111679255
0.3971507111312267
0.39394789429240434
0.41799949973615663
0.44056939725530037
0.440935028802172
0.4365038368516485
0.4515061750723728
0.45038034320110587
0.47456624331212155
0.48507778937150725
0.4843770363660126
0.45686820547648627
0.4438552491464959
0.4408988398237484
0.414348306648344
0.3866477729523354
0.3770730644626242
0.38476237888142323
0.40239361385162403
0.4033676227159571
0.38883199742994357
0.45612418658158116
0.6688934114940703
1.0
1.0
1.0
1.0
0.812977796611744
0.2183629060511357
0.44552756722765163
0.5122396085797326
0.4112430178093283
0.409246716777408
0.4114462493689621
0.418100856706897
0.4321670621396258
0.4496334401222284
0.44072548747362905
0.44465145182116395
0.45833640883885407
0.47763840651550205
0.47491409942289087
0.4957467798002118
0.5269441420678902
0.5494612288670504
0.55452587802221
0.5841841366663998
0.604359647640522
0.6436037387541358
0.6663830399076429
0.6999911770222612
0.7367006748725949
0.7680959212594386
0.7598549979665357
0.746904679589744
0.7466082132712698
0.7415876875125538
0.6871653027468657
0.6204475585786767
0.5700538206063863
0.5363756304449123
0.505650722378807
0.47392030628162934
0.4579338302933012
0.4615009315700009
0.44827387873802066
0.4375878147975792
0.439958255227846
0.45638494551232983
0.4579967413860958
0.44781053182329666
0.4529495290889261
0.46457614989014573
0.465903160400047
0.46536838085359095
0.4584500123702052
0.4698655177219986
0.4775986436679084
0.46683951220971964
0.45796645393737573
0.45749007613996334
0.4648479142720706
0.452898693008554
0.44175759507265316
0.45608383357116333
0.45239024211428436
0.4426107611200371
0.4387856003684572
0.44227553016347165
0.45284880235590796
0.45488803736868605
0.44538019672497775
0.44094049501155597
0.44933458440845075
0.4595014580122143
0.4645802836383299
0.47801266179706764
0.49032755719420357
0.4974727643507899
0.49430766692932127
0.5056550300164753
0.5327212994870889
0.5377848533921491
0.5129372072393241
0.49392595922286403
0.4956654270748967
0.4841134017261163
0.44649082836553466
0.42020784683912427
0.42200097202151127
0.4400205077692146
0.4407396984301661
0.43614075059127766
0.44846203404950247
0.5044752929480943
0.7348448574395803
1.0
1.0
1.0
1.0
0.7922186808070061
0.24242849890421675
0.5260638804462858
0.5782067495811968
0.4665468503218915
0.4516776781065931
0.4783799491161175
0.47764834969404407
0.4731174328951725
0.4750646268241779
0.49390494435968535
0.5086934918501961
0.5083561517928331
0.509444223548934
0.5251134558847798
0.5544018726311495
0.569055107806207
0.5788585425118297
0.5966187964480153
0.6429711174119687
0.6794546851583783
0.6973740235687294
0.7257642720143862
0.774779627823707
0.8091017093410816
0.8233528599530835
0.8335794451865401
0.8290857229248841
0.8179072856418713
0.7742558316256571
0.7175320015774647
0.6524249751823028
0.6045425913903961
0.5445935023170364
0.5018767978919786
0.4907375372446987
0.48287544841735974
0.46852372047814683
0.4572805863313443
0.4520381609778288
0.4691126519340851
0.4660431204363794
0.4619506264249229
0.46467666477156727
0.47934549477771987
0.479843518594096
0.48193996403609896
0.4692460543170707
0.477364057401276
0.4920760403420446
0.48053953192572496
0.4626305510117157
0.47279470040089305
0.4576520021609281
0.4549731599151464
0.4536099341507608
0.4510581765005015
0.4679706619278562
0.4617636207349922
0.4426557236619564
0.44555898009436773
0.4434404586994506
0.44569219672155125
0.4433625843056884
0.4448604949714278
0.45488411904764714
0.4546088394732162
0.43656839055684005
0.4423067421976419
0.49028153408526426
0.4996432832537875
0.48790768331375756
0.490723448018379
0.5217934300140394
0.5375857849282577
0.5311268858546905
0.5124663609649724
0.5078848963465876
0.5064337447938091
0.4806584458329589
0.43998915047265497
0.42599856712895773
0.4363800488327826
0.43887260795982774
0.425022776812941
0.4354363887263032
0.450714788017481
0.4525575246185343
0.525944200512692
0.7583279414126674
1.0
1.0
1.0
1.0
0.7719452873410175
0.2023584484142817
0.49682568835791796
0.5817707901962574
0.4925519945958893
0.48144688938246666
0.48272428550250046
0.473657468861626
0.4866242288458548
0.49234705360176045
0.49827974931711544
0.5126205994433255
0.5268586178927787
0.5430803916884783
0.5429246122280065
0.557647447092011
0.5803301299315632
0.6051187562228938
0.6262105467627335
0.6518737812863926
0.6703160227694
0.7057057676968427
0.7437444463075711
0.7799126277267657
0.8111286325893532
0.8587200489744206
0.9018665004713323
0.9134140231756955
0.9091199500803722
0.9300244383368238
0.9322951280207837
0.8744871759252947
0.800721699935813
0.7493576426511062
0.7010467084353571
0.6434972788537083
0.6081588268989169
0.5959652681270089
0.5785211226487261
0.5624841704630095
0.5589001429013105
0.5572606148485826
0.5768201849720237
0.5725403001020594
0.5583381194369555
0.5678952628530336
0.5880676754116427
0.5924918343020177
0.5841351890533709
0.5819168783513707
0.6041173442779668
0.6030848813212789
0.5847873721129171
0.5786662283404336
0.5769499405994826
0.5825717289225985
0.5680217763424444
0.5628839666199973
0.5704351164994048
0.5709073178350518
0.5531430455364411
0.5542161171548424
0.5553329916009865
0.5701996766322005
0.5540888344387664
0.5503587633795224
0.552508970906937
0.5687554056881594
0.5611970086962549
0.5751422374475867
0.6002249517203226
0.6207620283863629
0.6227393959041171
0.6112847812974943
0.6355798569267609
0.6530444072983144
0.6455911392657809
0.6352366859096924
0.6053293240914781
0.5835349316929344
0.5635626092261946
0.5453603216540202
0.5232290933481508
0.5489458766428172
0.5488096475188945
0.5410537259864951
0.5208807882762436
0.5819435204791774
0.7253184157571659
1.0
1.0
1.0
1.0
1.0
0.42115227487011975
0.5278761416959445
0.7689348766851868
0.6004794569439951
0.5589104997272496
0.5551167529873109
0.5852698803236869
0.5821726018912756
0.5941037706747222
0.576277999261184
0.5869973733012415
0.5958913998155158
0.6085347481275221
0.6149282218754412
0.6367059510737443
0.6433148239771198
0.6506192790566006
0.6594723720472695
0.6915518658148813
0.7251933715365313
0.7501211151429338
0.7675078055530546
0.8093807997655709
0.8500698409485139
0.892364119832834
0.9023844313933231
0.9222154281169608
0.9430918989571169
0.9501818878314114
0.9125802685791509
0.8681313565719982
0.8097292120763615
0.7607889198446252
0.6933266963935873
0.6606731274550608
0.6280758387912251
0.6057469351952458
0.5735605919984768
0.5680543504947054
0.5761755493055547
0.5935736391831368
0.5784063580942191
0.5747634421240064
0.5685349083218789
0.5758995878823312
0.5717640526059174
0.5816868548287417
0.5840711005636929
0.5965705810555693
0.5743831784971893
0.5745887842703407
0.5672811382974039
0.5841669393470326
0.5834737737377904
0.5674045441200192
0.5648897701433485
0.5815211225906647
0.5569202504143286
0.5531602452248577
0.5574545896644977
0.5598303137013532
0.5630430270265286
0.5541560458428627
0.5490417115045942
0.5587354680268508
0.5485149250727038
0.5424692113653354
0.5352578049695043
0.5563067476927934
0.5905162911390198
0.6121937879801562
0.6020806734145808
0.6003382577089273
0.6122301626818054
0.6479185689413333
0.6316427279305648
0.624695099838292
0.6082677896335229
0.6022335350170558
0.570145455530654
0.542390404430401
0.5249445493198278
0.5275178091104449
0.5126371216886697
0.5285627217124997
0.5268944518118179
0.5467308941714327
0.5581471257447264
0.793923732722262
1.0
1.0
1.0
1.0
0.44585418943201044
0.4496403958471739
0.7381723267268223
0.5612959055712254
0.5348500166645158
0.5368432722368485
0.5560258325316894
0.5387388263638898
0.5543199418450573
0.555613004460239
0.5785688392275194
0.5748570961375037
0.5900939441287125
0.6084982113926076
0.6316506939510689
0.6260990925830405
0.6359063852211867
0.6557978681105856
0.6950198233431146
0.720879986751914
0.7510302702445805
0.7884787595835199
0.8241722338726769
0.8382866133504805
0.8725266452635955
0.8991125662501347
0.925762003549773
0.9177556162464791
0.8996896009058556
0.8627989183066388
0.8302851644035393
0.7694205873727634
0.7147547468681573
0.6580222486089664
0.6292194784973489
0.5990811953795131
0.5807501852029855
0.5688542133603885
0.5745368490388506
0.566935536008176
0.5518857306960878
0.5447627424630797
0.5514407169394577
0.5626067997956675
0.5601757564605006
0.5621359919453747
0.5644406641932388
0.5643508814312955
0.5595147352607001
0.5569751670988611
0.5672411507728127
0.5686626379763315
0.5599634381138339
0.5467394524326326
0.5397027320491332
0.5391915175245918
0.5410382596517006
0.524645518178833
0.5169322959858554
0.5191442370189288
0.5132983313600753
0.4995828233655561
0.5145181685652804
0.5125823562756058
0.5112283405858741
0.4977195365675843
0.48658719957676794
0.5038402932148951
0.5141507410656428
0.5172188314704099
0.535404357761718
0.5451616534015035
0.5445580029542116
0.5447505669780166
0.5604987132430435
0.5797347232736622
0.5939825213778179
0.5731623351726088
0.5514904878104122
0.538328946761012
0.5303181597942435
0.48447823239042254
0.4497693147162214
0.45386097764405664
0.4802372210025747
0.4828146589129937
0.4925087844081274
0.4715948619259689
0.4829053244059095
0.5932278851587185
0.9494810892545296
1.0
1.0
1.0
1.0
0.5084419390588983
0.3997387524694653
0.6476049116836988
0.4943532111727801
0.47550902967257774
0.4845066565828985
0.5053209487988853
0.4854368423872599
0.49388922085980946
0.4936009554689741
0.5281024842158729
0.5232728153910087
0.5318403304463024
0.5280201828917579
0.5491994215767443
0.5770722663882795
0.597596912295612
0.6009502686988639
0.6363635204974979
0.6653256060373616
0.6831284789797766
0.7064672879036868
0.7592593232164687
0.7935673453046639
0.8026793025098259
0.8102689230307274
0.8289375258569557
0.8278598196522031
0.8085695473949877
0.7497609458566975
0.6952294656410143
0.640283496724525
0.5928571021869957
0.5441820604889316
0.5230436125202107
0.5112594681766024
0.5019752905697162
0.4881441017529119
0.48896466725418114
0.5054797710274919
0.5113428973755517
0.4994594892059526
0.5040017082343422
0.5123190728131403
0.5286499618796533
0.5114246208071757
0.5088494390338429
0.5057552402301613
0.5225811809288621
0.5129644556927702
0.5041577152883389
0.4983991475792414
0.4948449268731654
0.4885707834783677
0.4833509036322351
0.4865260976906888
0.4954532096395072
0.4846032449955244
0.4752075681312042
0.4796791895173369
0.4847751697905024
0.47482429598159326
0.4731831650126327
0.46685749116767505
0.48236543539030585
0.48254349179719513
0.46895068119889655
0.4768690114460858
0.511247233209262
0.5226355378450758
0.5182069515131229
0.5166766986619361
0.5416806890011127
0.5709636033263369
0.5611145543477226
0.5385331835896305
0.5447640519457448
0.5336882983379674
0.5044201430132087
0.46994156222678035
0.4467924069977311
0.4414584396882651
0.46683755810141614
0.45395779367753075
0.4611426608690107
0.4493366608026186
0.5044364849223009
0.6718847881088321
1.0
1.0
1.0
1.0
1.0
0.28502595056803787
0.5382620519887307
0.6537566577214861
0.5218648794021241
0.49667046353256666
0.5147196131140384
0.515276682060924
0.5084298845098948
0.5273966448171563
0.5452539496736982
0.5466789119754976
0.5488662296966238
0.5606780147741032
0.5844547068604026
0.5918363680436248
0.6071090265999786
0.63375077466072
0.6665575174020658
0.6874685874401583
0.6951830086243639
0.7237620240801358
0.7831994146130881
0.8379609406264221
0.8484916167537037
0.859384721648032
0.8844581678630092
0.8937787698850641
0.8901585042972812
0.8645026458326719
0.8238313274627422
0.7683370771672416
0.7022587064517243
0.6401534213933682
0.6079961104313341
0.5861324469907573
0.5564603812358018
0.5364164087394153
0.5248133855813932
0.5405282693390494
0.5369391235157172
0.524824759901225
0.5332399769940093
0.5455705235183743
0.5465828081061754
0.5376505821932058
0.5419492079676435
0.5611797224816448
0.5665477433337369
0.553206499832456
0.5338550402230011
0.5380916227630719
0.544502309866082
0.536893190660821
0.5244763000364212
0.5162545326159583
0.5315500107374236
0.5214080677800875
0.5091521153989278
0.5054511378300421
0.5193783780219998
0.5104129458300821
0.4976003510904622
0.4996068381864
0.5211522206249788
0.5052982875805115
0.4938003327536499
0.4890450724553602
0.5091972834195354
0.534725575303621
0.5503604352740247
0.5506650649904883
0.5690825290645318
0.5645751897677672
0.5753514436387099
0.5922044509197053
0.6023587508852206
0.5915639133559365
0.569779013304271
0.534101299081387
0.5015474431063505
0.4881445472702328
0.4678246364832771
0.4579716358481127
0.4741317373679756
0.48503545327508035
0.4850348753487822
0.46046392986977436
0.5169412035040508
0.7790538273558016
1.0
1.0
1.0
1.0
1.0
0.4720295208431809
0.3683982616940412
0.683484199652081
0.5518776875993837
0.48182874240045004
0.4834370458137471
0.5111278983640719
0.49621846500322125
0.49193657302020366
0.4842899460683154
0.5035444436557108
0.528689796070068
0.5441095491902846
0.541112755400429
0.5567784327802379
0.5751896855529876
0.5919025573029878
0.6029812871390623
0.6245684965527866
0.6613460343655243
0.6884288488020966
0.706546612895208
0.7385291111162372
0.784250575798958
0.823342339606396
0.8449832088166515
0.8583370251486686
0.8868811362374766
0.8924992579599204
0.8689746858546595
0.8424926797270983
0.8107354238479261
0.7633895024975906
0.6771677808220403
0.6131323772922797
0.5752542490630098
0.5560583411437919
0.5318936094835387
0.5051761895465756
0.49220175751730844
0.509414767591485
0.5044297642277343
0.5019220977668324
0.5071589517293674
0.5178676032523455
0.5250570586345616
0.5109742703352975
0.5105134253153448
0.534235220096046
0.5420848444386192
0.5261971014150983
0.516686331559612
0.535291898571504
0.5426327953475883
0.5298868301495379
0.515983173845047
0.5185418071100967
0.5222803258922706
0.5058828410090663
0.49299512853484745
0.5043294669008873
0.5115827732512851
0.5022653963950997
0.49270456055570405
0.49066819646445226
0.5079787905601746
0.4980316242627971
0.4927559603381654
0.4870340410337466
0.49276930442485806
0.4964521329745037
0.5183624451507011
0.5411987305857581
0.5570518769210163
0.5600489982074912
0.58227522494926
0.6062600060022211
0.6115626638520967
0.595287724948923
0.5727741592139894
0.5341311610291303
0.5277109015062786
0.515054373924354
0.47899262286824384
0.46546312349271296
0.4702300346122371
0.4760557953252089
0.4892766693624879
0.4698037509573371
0.5025970342178051
0.6498262152449875
1.0
1.0
1.0
1.0
1.0
0.5867652880014539
0.35120431761414317
0.7193599238765443
0.5754953749234243
0.5011826971438724
0.49355517521848624
0.5140263086188475
0.5094649625248324
0.526165949150877
0.5215387259494839
0.5534366583775476
0.5473158260089132
0.5420799729895615
0.5540204415398348
0.5855754942967919
0.6031380278487133
0.6227751263491426
0.627474747600982
0.6590912997028197
0.707390501698694
0.7448825477416008
0.76431375012062
0.8116722656040581
0.8647684969447941
0.8972947940658763
0.9057223450828207
0.9022822320776782
0.9109563657171881
0.9030577626927861
0.8458805537199471
0.7801039425014341
0.7201576201877191
0.6740506632806412
0.6108445591338058
0.5707435541155226
0.5624990879923367
0.5459379666116069
0.5156162877366035
0.497072628112015
0.5145255487426945
0.5328684877375325
0.5169419793854628
0.5092242332137336
0.5219661823806013
0.5288163093075982
0.534841503907748
0.5336245943862724
0.5255317722134535
0.5381119301877954
0.5415781470196717
0.5218428337524154
0.5215271561501176
0.5340059511628341
0.541214076369292
0.5053651144064817
0.4814192018416808
0.5027945202676206
0.5130788911983066
0.4919594072708156
0.4778290235900554
0.4837045178603975
0.49883549446873265
0.49217211517917436
0.48753715392062463
0.4822173933228625
0.4923210010134156
0.4815016853536672
0.46822450467747856
0.4764566160420952
0.5047911500527446
0.5343001551541775
0.5376345026702793
0.5317109416374797
0.5529657722572322
0.5831781986519621
0.5671877122069449
0.5501985727221499
0.5505477063773704
0.5305017070730653
0.49399516835723845
0.44707867792018374
0.43508186874857635
0.4370350621282462
0.44724458931870936
0.4361291144775402
0.445975120677903
0.45318210279780413
0.4718148776060497
0.6448886861035585
1.0
1.0
1.0
1.0
1.0
0.3839986189951573
0.3974276716922938
0.644559029328074
0.4775679762059517
0.4546167603264939
0.45208403742977044
0.4630558468820728
0.4451048151700011
0.4797613696048659
0.4799994792457939
0.4783011359616964
0.4878874319954475
0.5022582713134665
0.5139101564456565
0.5249058974727999
0.5311658537312174
0.5726265087604135
0.5979465582088908
0.61568560385791
0.6216910047191414
0.663589894640154
0.711611528080945
0.7537215340210256
0.7645248929167368
0.7966244874637521
0.8413847911821817
0.8657498778501551
0.8471502538153374
0.8263930282881218
0.7848595872449612
0.7196897113431242
0.64058591948686
0.5892093370703114
0.5373982671974112
0.49809822133785336
0.45539205727412124
0.4449898474967486
0.4367796504104068
0.45481545550177255
0.4446629674770034
0.4157901135393434
0.43042614556002085
0.4506331501817523
0.44750488650608383
0.4377145748144697
0.4378012832338576
0.45260676212211665
0.44853025531967916
0.44125931050736344
0.43890065168692444
0.44402707013855425
0.440152481740248
0.4416234261144278
0.42184944007835323
0.40739982929023244
0.41015879409767253
0.4042779424807404
0.3836555581596971
0.4089160288608757
0.4098011069441725
0.38309732412048075
0.38045747323256435
0.39000488269229183
0.4040729886895738
0.39446857797896734
0.3819535500152534
0.38709727974993735
0.4041742015391917
0.4199076037454123
0.4119697917031826
0.42028336549557616
0.4516218766938035
0.44693045760311045
0.45137658386604895
0.4616049664208487
0.4643103256317733
0.4678001749864003
0.4512087792537899
0.44241388217896827
0.42605993862161284
0.39647926693202756
0.3596939961616784
0.36461642071527234
0.37640224151724794
0.3598600314941158
0.3577512683011223
0.3681875751440483
0.3886063476620442
0.49525858552039
0.8087200514010238
1.0
1.0
1.0
1.0
0.6690646469991398
0.12283907839143415
0.45963288099107374
0.5071339074566604
0.4334158127746778
0.399644231160808
0.4290309482338516
0.4211884155525051
0.4155380454469649
0.4226425509252209
0.45844445162662273
0.47512666814645615
0.4611580018128508
0.4701223044019141
0.49534803203829
0.4975561772726594
0.5152801105572259
0.5157679568560265
0.5543358019424092
0.5971518041174572
0.6113518315763005
0.6244837362278215
0.693992138321641
0.7527527957373379
0.7621474390256658
0.7720491402873059
0.811581269659265
0.8264119273897194
0.8516770492247729
0.8404569206098336
0.8096845655076107
0.7871105097325586
0.7331452803699252
0.6694806133430086
0.6198867987369084
0.5891255665459216
0.5408521947280216
0.4804107131746577
0.4637796723684878
0.47144510216834024
0.4939561601919677
0.4771639498130873
0.47177096008858355
0.48358224556497237
0.5041411935979012
0.5061260494843175
0.4989478470077211
0.49519675571775607
0.5030099283042897
0.5115804518095203
0.5159650980954693
0.5092898714614642
0.5225258407208762
0.5122355398509764
0.4911273226387207
0.4828833153794466
0.5207084411528802
0.4918164318465855
0.45754674011282115
0.4776609203861738
0.48256677695663824
0.4775811334304335
0.4833507761941897
0.46481567440114624
0.4442166667711332
0.4518170945890872
0.46194706479396536
0.4751786633737643
0.4818899822679503
0.4731371066523746
0.4893628151039417
0.48555317254800306
0.5115651363030821
0.5363816858729942
0.5295658452651375
0.5159063863895813
0.5485034767116097
0.5872817632197693
0.5889739487946202
0.5626190257478794
0.5333210555796503
0.522055770191821
0.5002647322735911
0.43374409370638717
0.42823336067362383
0.45472232645925015
0.48033413350592696
0.44735195827182855
0.4503592444806799
0.4488773893410919
0.5058916006033822
0.6895986894395133
1.0
1.0
1.0
1.0
1.0
0.26682578532999524
0.43961731374094926
0.6927626252748625
0.4878516482317556
0.4717317758728896
0.4741416201037447
0.49138591506027185
0.4763097173664198
0.47976706701368366
0.4831215473588947
0.5176338556496614
0.5132346296418158
0.5173087985463835
0.5324818078765088
0.5545275669159038
0.5510539097771067
0.5694989472046507
0.5883678401072482
0.62983490407603
0.6444190215805593
0.6667094621931373
0.7100510354653788
0.7734364199736941
0.8163502714078911
0.8330039665976823
0.8527229206519487
0.9130929551933924
0.9290095003647041
0.9249649235152745
0.8980528357740706
0.8594947458618174
0.8051923915516965
0.7378413716328762
0.6660626208309915
0.6198403635175117
0.5674481843057062
0.5219535754209326
0.4917842093668514
0.4976131184245265
0.48033057796269835
0.47425980202170787
0.47935758486537405
0.4731571589744691
0.4840677039516007
0.486650465656958
0.4760058765107651
0.4842331859741341
0.5000432535969884
0.4978813097850329
0.4754558960953573
0.4779214747757673
0.501918995558438
0.4985970456156191
0.46822749717354384
0.45913749502908957
0.47344052715441604
0.4786985036169523
0.4589538291401314
0.44188595608527786
0.464675698265064
0.4486760317234918
0.44031357417072503
0.4266299492706698
0.43598775254873434
0.45847062154536183
0.4449291254789604
0.41708106717258814
0.4416068485210453
0.4437106951095271
0.4636177093969615
0.47184366016827406
0.47867530677906756
0.5020166470644465
0.49398228498275526
0.5088974302245781
0.5305388898947194
0.5229095007203786
0.49859703731486976
0.47780750470957833
0.4681164596016803
0.45846211764385114
0.4227844220660774
0.38766144410652126
0.39119864202310134
0.40620869353073175
0.42326115058011915
0.41593406388863413
0.447018737385401
0.6309158618130633
1.0
1.0
1.0
1.0
0.9770260777170374
0.16517827714619968
0.46134555997323945
0.5536368399472176
0.40838485183280004
0.4169308916497564
0.4284099224997471
0.43084832336429946
0.441296237751469
0.462731662587567
0.46809834934693234
0.4736570357096433
0.48394730933407304
0.5034457978719804
0.49881618442435605
0.5230903409323071
0.5560432162020719
0.5927014915984788
0.6084025683382039
0.6300318305772813
0.6777171956645051
0.7280921145748043
0.7572467142622064
0.7883587298336243
0.826260716704663
0.8494002623732495
0.8433698272837221
0.8194025653880624
0.7963902565163353
0.7489058761370253
0.6703171838173683
0.5803419695606862
0.5162952036600171
0.509006287266556
0.45693922740315135
0.4256372334872204
0.41754979437552364
0.4116767089106859
0.39214223107129154
0.398695202924708
0.3959575976950842
0.41822296132279213
0.42356755132231516
0.4011363620999132
0.40910141431097513
0.4339806232794743
0.4305487439610253
0.420812939990339
0.41609071676059217
0.4176659395106769
0.4383349511979212
0.43037994866114826
0.408830370481284
0.40574337420182943
0.42568502617301507
0.41782151340187446
0.40120293850495725
0.38181013068062924
0.3870188485261069
0.41512764585190254
0.40722265975277117
0.3831409790894007
0.3923533592105704
0.39712693225323914
0.389312226318232
0.38237386395059025
0.4030641179013201
0.41011409296038204
0.39779522902442394
0.4174272147627853
0.44374908092004794
0.45645147770561056
0.4571828793965425
0.44175635079175607
0.4709469272925978
0.5000154394159806
0.5007603018551319
0.48064059720842944
0.47534436961833765
0.4786301015134507
0.44538964457184155
0.40813757524257055
0.40395350648698614
0.4126622386470749
0.4073961151692621
0.39074405484991115
0.41149584668928296
0.4239636833712651
0.4586443039587446
0.5933824387936922
0.9526719548315423
1.0
1.0
1.0
1.0
0.2884626429839566
0.40812956241197484
0.6362451214165781
0.47625715858608225
0.46597353570547373
0.48074121650691753
0.4893106396803778
0.48521132412341855
0.5183135854869012
0.5123650048833222
0.5145725538530567
0.5145145170188963
0.5266330578981997
0.5449211025660692
0.5825238130724881
0.5738832456650736
0.592532569016883
0.6306546361676655
0.6715085147577026
0.6828599090514802
0.7270974727179977
0.7932672196687138
0.8154671230682915
0.829653539542534
0.8626452571739458
0.893920718735292
0.9259571016602667
0.8987015486720911
0.8660560702145386
0.8298320669390259
0.8031187687978241
0.6980814109762173
0.6122639017156868
0.5682882609104954
0.5667030280033766
0.5450428069604571
0.5321195919807256
0.5073825284234561
0.5045486500604456
0.5078601925948768
0.512556596296982
0.5103788511793165
0.5173640489290161
0.5055142095467839
0.5075394011074001
0.5182761609263474
0.5334687112643071
0.5416510783136337
0.5269788852039388
0.5177760567826037
0.5378098851362423
0.5438280162561291
0.5372195518352336
0.5022811256065135
0.49824004804692884
0.51172325353503
0.5145343401002622
0.4890466563174319
0.4934791992417978
0.4977796573142775
0.49555566751470453
0.5018334323223714
0.4946257147723925
0.5100625165894861
0.4924291992363182
0.4653636880188836
0.4786197393567807
0.4936889141064255
0.507252171646105
0.5361190028300857
0.5362796809900383
0.5552220987075911
0.5737015378083183
0.5810478587701565
0.6053322163353186
0.6075034075843228
0.6197867239754358
0.6054267200879848
0.5517817880899251
0.5168187237841998
0.49778231309637155
0.4546908364915545
0.4466205456818525
0.47414010163401227
0.4891809791382923
0.4912084383399341
0.4755330497437563
0.518036833574723
0.7187837699686714
1.0
1.0
1.0
1.0
1.0
0.6467085572374659
0.2928832375401268
0.7040344974803531
0.5743515766143498
0.46965695710565436
0.47120121994386166
0.504527751213617
0.49951087528789484
0.5065648873887414
0.49682848707553634
0.5288544240811694
0.5469869503367935
0.5351411325998812
0.5331832508702645
0.5539648341242324
0.5895678260438018
0.6009111121190426
0.5927728069377889
0.6220414700841259
0.6810445303626514
0.7325222236200691
0.7448760934190716
0.7877722667137339
0.8533315417336244
0.9031831548337321
0.9003245473667766
0.8982290816238502
0.9206613597803299
0.9293681585163533
0.8868333595060068
0.8311719033158738
0.753727642964243
0.6856197454839136
0.5964766084940571
0.5549599109640375
0.5334365677330699
0.5209793675091411
0.505694224373687
0.4961340960878621
0.4879415625583493
0.4969450501861178
0.49007648465420467
0.5053754238226714
0.5036571495507293
0.5073543436940371
0.5002135865397024
0.4987709261202249
0.48706488021841804
0.5098496981268565
0.5199072357498522
0.5193980893665338
0.4935746346531199
0.5006508547844996
0.5014111987068901
0.4952104809266758
0.48617105906044183
0.4827228717335087
0.4889371207004906
0.490162680866823
0.4588130643743825
0.4686690821147952
0.48398069956156026
0.468039225787238
0.4477054011678724
0.46510352971397106
0.46260024123651755
0.4483181272561095
0.4447439368262495
0.44968137878556397
0.4719524062546287
0.48517998835704323
0.48546388589565426
0.5066999528900125
0.513358266253561
0.5260423429794994
0.5447832348849586
0.5701498985284321
0.5833133780002486
0.5799511702080036
0.5369298224997514
0.5247239201164222
0.49643018429814667
0.4653911249222508
0.43126687464591223
0.4158283686299164
0.4227086028335457
0.4417821821949935
0.4467271864752881
0.44493216772154753
0.4422810961066624
0.5750407114639338
0.9738889664342374
1.0
1.0
1.0
1.0
0.9444001838419098
0.2203398363534431
0.5726381799369021
0.6285043271364346
0.44891309573857513
0.4350787815823728
0.4768980991761442
0.47946092840461524
0.45343832637214143
0.45452577356807183
0.4973854393703331
0.5050407544628794
0.5171239554816596
0.5129869821970079
0.5207946639642091
0.5393974584178794
0.5636299249021488
0.5762362618299035
0.588808025022795
0.6498515210889921
0.6907535967893081
0.7008503373363157
0.7431185917019771
0.8021848699483394
0.8413461385090691
0.8774499341727371
0.9080696001546713
0.927297486542642
0.9291944971018697
0.9006398461671339
0.8731023837454253
0.8385260683083521
0.760891157649096
0.6764724737247423
0.5912742647691143
0.5450048231915688
0.5289925778751614
0.48733316588637043
0.4656199664433263
0.468355394326775
0.47137929330574735
0.4609414599401158
0.4662001063066093
0.4364783939719571
0.4637708187717017
0.4863210528724539
0.48221307950411213
0.4655270270514764
0.48737741472808827
0.49933469334532454
0.4751616635193502
0.45730207833064157
0.46926170223866287
0.4711613461400298
0.4759903870381761
0.4435358590790828
0.4470555387791168
0.4599312698897088
0.4555546966171523
0.42730631224326193
0.4287403445769781
0.4277464265400801
0.4364453373222449
0.4213643092260888
0.4193522182472159
0.4215944361864395
0.4169669236934837
0.40735636096219024
0.4230314626861652
0.43391154782255253
0.3995529304828773
0.38188787354935183
0.44008763055512634
0.4975583864573509
0.47836829082559484
0.4540824303601692
0.480101866493378
0.5051797762537779
0.5296445474989004
0.5049682723430905
0.4898464100922009
0.464848392531768
0.44156582792873866
0.3930965446758836
0.3852090808295937
0.3580820409273403
0.37572164291463717
0.36508850703572165
0.3619879971948924
0.3578761100799717
0.4221604946834011
0.5816072587264866
1.0
1.0
1.0
1.0
1.0
0.20612715024310185
0.3379968385513963
0.6257614475862152
0.3807916594116506
0.34859906769634474
0.36906372061292336
0.37964515745644595
0.35515793553847796
0.3804220467271572
0.39670415280323235
0.4290980606559308
0.4235045314565543
0.4153249718366929
0.4219238663505334
0.4669542671282853
0.4832071885807392
0.5018290479623528
0.5171665239967498
0.5494496004928553
0.573647676929571
0.6129482371062173
0.6517063112909658
0.7244790982952113
0.7522670784481663
0.7677716836685378
0.7974167014024383
0.8494633087758936
0.8485882893725017
0.7969234969296526
0.7414094275720016
0.6666264543731207
0.5776294123839409
0.5184527415389553
0.4677840883895624
0.43350593786711455
0.41052986921746404
0.37167035277146865
0.36128714014828933
0.3726313770191299
0.3783260684061619
0.3829583012895963
0.361729503051859
0.35459624177702515
0.38686983334839453
0.40219061337125916
0.3821523224198283
0.36906046063805675
0.3834279974880248
0.38227847636026036
0.3638237291071069
0.3551131833490987
0.3843116203427531
0.3750044823188177
0.3392202587058925
0.33037898900704804
0.34268244227005257
0.36135566748495174
0.33452574812563773
0.30748801732367853
0.3247925945864251
0.32137063723669146
0.33064043436085394
0.31755232079183876
0.31973227801743753
0.32865144402049845
0.3131795317170082
0.29422988094207236
0.33025400049322123
0.35604195067232275
0.3655619440067067
0.369435202859375
0.37436765372626646
0.3896144817239359
0.4204485750124879
0.4378982886792258
0.4419616380684369
0.44020153313043736
0.4365833127247156
0.3981012344240989
0.36031587953803507
0.3381540417265415
0.33326911679411897
0.3233956265038067
0.32978649519775105
0.34519920108449803
0.3655341675061937
0.3531981487794842
0.3853219830361003
0.5670218272740143
1.0
1.0
1.0
1.0
0.9885722923378092
0.048484683282714956
0.33154716876553103
0.5377250645126285
0.402733292649191
0.39408764557095977
0.39047538100607193
0.396772021752959
0.41078143097139674
0.4174205970130845
0.41463035896974265
0.4187344771140869
0.4548668231054206
0.4903297861200257
0.48156446403930325
0.479721276293791
0.5056528127801692
0.5525192075076579
0.5579439664155494
0.5955349413284712
0.6375139788237648
0.6806271557998773
0.7174551576919901
0.7776218978525445
0.813616002117233
0.8483606089042478
0.859982496581465
0.8745422048345255
0.8656353928191974
0.8789874912476972
0.8383320056412064
0.7304028016232408
0.635026727885825
0.5745102510569209
0.5200382181412417
0.48148865999007573
0.4573931796639995
0.4412621087308436
0.4327147354923319
0.4171022055556505
0.41191996754295335
0.4363881614023091
0.4324474605212479
0.4325978976067078
0.4532114614855498
0.45403675617183303
0.4590467231701618
0.4625400323654511
0.45752353945286767
0.4549095059522784
0.46058067878844317
0.45724711124162276
0.4304174657291945
0.42435925340231134
0.44961985110411884
0.437757327324103
0.4226720004377831
0.3985707070851524
0.4211231572751178
0.40882968294568495
0.4112293615840109
0.4110831997549488
0.40639256815559505
0.4186922156514016
0.4223599515196522
0.4086422045910093
0.39523464854319856
0.39488334145551474
0.39597501603127006
0.38338796191862984
0.39948970953075164
0.42999278653757117
0.4525266598774734
0.4564730170562192
0.46164367522783956
0.49045329150299344
0.49409373089190833
0.5234805937946708
0.5324286214144872
0.5209234172201531
0.5305320694831435
0.5179338114074833
0.4716294941384419
0.42904571462047897
0.4185831782723971
0.37137323896136226
0.3619639777267566
0.37574740802631645
0.3888363193014504
0.3757024525500049
0.3807686968712035
0.40471711842673563
0.5060672403761638
0.7797499848029472
1.0
1.0
1.0
1.0
1.0
0.16765778732556913
0.30731242237324824
0.6574211720964747
0.4497919700879919
0.416961434084553
0.41952000102522574
0.43346937305451216
0.3966968361484902
0.4181984578396918
0.4414663542527929
0.4749830355653982
0.45693990400548146
0.4589786968832946
0.4998605710468419
0.5304839522645255
0.5188014871921008
0.5318534371915183
0.5487281716503573
0.5984017443156835
0.6392072048180422
0.6871672925641253
0.7085402168982009
0.7653827475754602
0.812584843405007
0.8539586745626234
0.8948078489980453
0.9342232595639451
0.9449580086416978
0.9220866288568456
0.8735308175705931
0.8584765423216274
0.7763373885487382
0.664228994990992
0.5885605715212826
0.5460670539965926
0.5123223012455933
0.46789399598422676
0.4409133758807243
0.4352960319543501
0.4295891529655792
0.4325139394045653
0.40995298915311607
0.4401358354926271
0.46925575999611047
0.4554578211056433
0.45292010003370986
0.4473907571030333
0.4570295065662477
0.45759310904050327
0.44138135509058507
0.4509943009198902
0.45521113860227774
0.4558970991107791
0.43257870945015126
0.4354595935150457
0.41299899841087007
0.4300864875372693
0.3984364075647756
0.39026101212744674
0.4120206859010761
0.42246205707632967
0.3826440498886275
0.3796960249800369
0.4055889130178894
0.41678123620719837
0.40742473121671174
0.4164736452060033
0.39227937929704104
0.3986785636373237
0.4105644527521374
0.4398107209328275
0.4539515473772534
0.49442429871734683
0.4903256480175388
0.4820077424569723
0.5089574455712016
0.5414303606204515
0.5202193271712224
0.5027314149557828
0.4800042300970314
0.4811912478772217
0.44691876450315426
0.39114188502357566
0.35247789567745336
0.3733428123667465
0.3853734454195584
0.39165244619083683
0.36935798202642645
0.39044752455809484
0.46484732656760885
0.8334521930931192
1.0
1.0
1.0
1.0
0.44095380339113105
0.1642212406835765
0.6569831778145192
0.5203806796061031
0.3962390792783822
0.4027926273972945
0.4318329170374512
0.42862686020343627
0.4515411932705519
0.42499730397495883
0.4393551183079617
0.4554808939255146
0.4712409239813719
0.45863252379356123
0.5017254919823724
0.5346499451848759
0.5273155765603634
0.5319186633917736
0.569949706330842
0.6044508671821418
0.6505342912409885
0.6656179280733212
0.7202461678056264
0.7713513490412254
0.79436708740246
0.8227487259882306
0.868258982061257
0.8893120316531824
0.890791809169445
0.8732025660800184
0.8382376154299449
0.7789333422764345
0.7165609068869525
0.6573033521606836
0.5953160515612671
0.5202197676296574
0.4907125577025647
0.4711562666724979
0.4363337943908743
0.4277285396612875
0.45698601527410554
0.4543910017210232
0.439940954369357
0.43311035025489614
0.4488358854530553
0.4419158850359892
0.44537284015393636
0.4507443435975536
0.4649103260564645
0.46010347369077487
0.4310126884982825
0.42416951623452226
0.4379451582772186
0.43574299019930907
0.42009597312571517
0.4025851472783118
0.41942196236525325
0.4110102530503548
0.39880032735251003
0.3861356923462326
0.40024620024832946
0.4033392040967197
0.3896056873848083
0.37460156958766344
0.3824900558845774
0.4024762742124561
0.4023693017641949
0.3806760612007667
0.3702865043323295
0.3897170503302966
0.41197761870622457
0.4178311755141035
0.4282249011556349
0.4268100319960819
0.4511837494745225
0.4465825183007223
0.4819003464915471
0.511402018687846
0.4806374376965021
0.4308795271874809
0.4451673120204278
0.4324795070499799
0.3862960902875171
0.3523574950695538
0.37841753285110424
0.38203171626597043
0.3847125223875707
0.3917608577617625
0.3712459663527207
0.41238281206634664
0.7967231517051481
1.0
1.0
1.0
1.0
0.4395864203165399
0.2354896662180662
0.5597438714998809
0.42825381520027006
0.38912985526034866
0.3758171683359274
0.3925289603647219
0.4007010776519048
0.415097332057831
0.40697498473438215
0.40573250595432386
0.4263518177814742
0.4601831779425881
0.4382547165758842
0.44960593201245064
0.4805185813993539
0.508064136844832
0.519532177870649
0.5475885981606616
0.5862116328786657
0.6189764446400469
0.6431546078783612
0.6836091526711419
0.7164886279597212
0.7607623055713684
0.7699550475829466
0.7643078407420543
0.7518010253297686
0.7481553660200977
0.7146635406011714
0.6203213302942538
0.5404609510036859
0.5144055887064127
0.46249373506152747
0.41371489414579754
0.3872281001550584
0.3898323471792568
0.38278367120423507
0.36774929567635395
0.34670972688168844
0.3562438829962721
0.37398914627747487
0.36978798132112334
0.35810026797575406
0.36812537665993056
0.3868371030643162
0.38964300421655673
0.3630148477459973
0.3770018462491536
0.38978331381317277
0.3731430208801448
0.36070163646574666
0.3701637864794754
0.38907178242666424
0.3786787136347147
0.35119352153553474
0.3620430996591424
0.385688951477722
0.3636818288461089
0.347601655838434
0.36318899680694994
0.37971986286514275
0.37040513402922765
0.363823304644854
0.3616242922235255
0.384345729287966
0.3935280431849192
0.3833844401028153
0.3823168902668462
0.3924145906358995
0.42404181917064576
0.4273084826560889
0.43951072320194423
0.45555579585529304
0.460726173430236
0.4728485386536576
0.48344598082543755
0.49293959711119867
0.5131087584205744
0.5054239369306333
0.48222027199717504
0.45614441525427996
0.42129241240270937
0.4013373090188603
0.39767430702233647
0.4043935972483227
0.427726501350417
0.4334514604647949
0.4139368203196633
0.4238520890716904
0.552943140894555
0.9597989218543773
1.0
1.0
1.0
1.0
0.5242024667033671
0.24936021667727867
0.5890461311907302
0.5005840158938273
0.4349451888385022
0.4160549981123601
0.4391391348055846
0.45793309619836736
0.47896354890699044
0.44582348466601596
0.45464101048564326
0.4775282403365181
0.48016606124195976
0.4800874636835332
0.48861312127191664
0.522189078491776
0.5630066669232201
0.550238842197966
0.5660907825504968
0.6097749441253238
0.6616142039744066
0.6857520631934152
0.7276212265101145
0.7744687063988043
0.7982053838397605
0.8018421986065801
0.8089950138473043
0.8149403447885539
0.8119433546569287
0.7638875517077147
0.6922275684392074
0.627680596432582
0.6116410382516476
0.5527231698188275
0.5034647219183663
0.46040091951746176
0.44588803240282804
0.44365770111074043
0.4315940989159536
0.4214646167682118
0.44564029898665486
0.4289907914698987
0.43284191665058935
0.44228597272568493
0.46638423931324163
0.4728662823353448
0.4583202886026279
0.44214572906593413
0.4754744133161325
0.47730175047504175
0.46804051020113124
0.4520349362185157
0.47015756881073684
0.46726790444954797
0.45462078093941916
0.4443959603683054
0.4444976838121226
0.45338312460447827
0.45147236183798023
0.42421469466097755
0.4399302755880628
0.456740707059393
0.44408189231845985
0.419601750946491
0.4168461327276791
0.4402685860119301
0.4462178250163065
0.42037841873763193
0.4096171583421115
0.4268924182572751
0.4663571436985
0.48320955964903806
0.4907882398357343
0.5025751121080334
0.5047269956192201
0.516127226686571
0.5291439806973738
0.5191238444827657
0.5319024969191298
0.5109666648148331
0.4820562185431501
0.4455162880383745
0.42452384159137013
0.4131441323566552
0.4314489113587287
0.41456159970957873
0.4328036725549767
0.4395832283262833
0.4328779143419642
0.5162938125583945
0.9090340194485261
1.0
1.0
1.0
1.0
0.5929301766001022
0.22512364047277691
0.5906405688846929
0.541334917390083
0.45397692487636804
0.43964147094458744
0.4533514975917693
0.4614032554090322
0.46711588457300185
0.4587303131132659
0.4679223797035047
0.47096964845091727
0.5029032813051629
0.5145650874572625
0.5208612087777379
0.5303654848467201
0.5592382330887642
0.5751955455080473
0.6016434762120586
0.6242703131054886
0.6768951472901785
0.7151303629249118
0.7551203961300683
0.7934021492408414
0.8134708493106204
0.8228911824055736
0.8333524510191376
0.8278478446710548
0.8194543713948533
0.7950575227353905
0.7132973918439223
0.6472058049426115
0.5929615405889826
0.5639863262062628
0.5214334092276033
0.49617409229979714
0.48329034553500777
0.48548930937840085
0.47510154144906364
0.4541484693830471
0.45455142070104937
0.47070967299957484
0.47411522592528443
0.47401082740952794
0.4517522484628033
0.47060839934747367
0.49437080849188664
0.4835853277530284
0.4815319285940077
0.48498820525446085
0.5015013448442678
0.49189033858555087
0.4549325481356627
0.46372275793173223
0.478653161429031
0.4524292061525722
0.43293069639811976
0.4521218632333916
0.4791630694379445
0.4511070688709209
0.4331401402249237
0.44362260667186765
0.44727378391927114
0.4467757953287719
0.44306396883729793
0.4223624183177693
0.43707858305866665
0.4591842161719993
0.44231472597529314
0.4443006855576641
0.48713074884978236
0.4999876080061744
0.49150184803214036
0.48720544476146477
0.5129303185016514
0.5416027895878306
0.525158322548395
0.5118031589540726
0.5081680136872304
0.5005165514247618
0.48407688867348586
0.4484190070165207
0.4230515724508061
0.4201201683078516
0.41202030658655975
0.39247047217338366
0.41494574381982396
0.4400564532710772
0.42638203470458363
0.48695450312578215
0.7799725888208549
1.0
1.0
1.0
1.0
0.8122065534962625
0.1231587701981824
0.4616064795426872
0.5991388782271562
0.4582323769231844
0.4411988890622586
0.4315682528178872
0.4451621558533299
0.45474875112184554
0.4604304759773008
0.4453754218205061
0.4515986423194859
0.47319402190630744
0.48717187086735014
0.5134918971846111
0.51741226621424
0.5198508549283714
0.5649126622037152
0.5818080983246052
0.5862878174630004
0.6048148759333527
0.6501152078151818
0.7005693172492113
0.7211303807962686
0.7405265703688618
0.7870645647111802
0.8303072458359843
0.8493395893547391
0.8559556086594784
0.8665277015947819
0.8716635719958774
0.8423471474196058
0.792072107742992
0.7247773255529528
0.6736508502518265
0.6115277849360173
0.5442527833361223
0.5070237197228854
0.4928618224480565
0.4793256543238608
0.46464018977791904
0.4466434644876238
0.4592693956142512
0.47737780396501456
0.4712935164645594
0.45242617731332385
0.45723881065956906
0.4935554693426744
0.4871437454910925
0.4669698363265133
0.4837358830080271
0.49295727947069734
0.4801256836458772
0.47218464616874867
0.47483801217489985
0.4957817555367331
0.4732806607734526
0.4553747435261741
0.46070510027508166
0.47491048953857745
0.47088581821081793
0.46478450466336296
0.4380347951109198
0.43661996730337355
0.4566890725362498
0.44452345402900856
0.4509963008186058
0.4426579432889306
0.43120545201528976
0.4468348165111287
0.44219313399236937
0.4602598064382584
0.4655528059819112
0.46108900989892454
0.4858431026417084
0.5103526731608435
0.5115364627725684
0.4905201826089045
0.5027389601948922
0.544153881236359
0.540342789318791
0.5261126120913118
0.5066568771064434
0.4736128891468813
0.45102444124950203
0.43779730846655474
0.4088893121754655
0.41116927555536087
0.4224254925351699
0.4411629835748726
0.3994970673780237
0.41764939410895785
0.5760502718760305
1.0
1.0
1.0
1.0
1.0
0.2664360455763342
0.42116816089489884
0.6721679443982781
0.49059666632245297
0.4376979874689826
0.42717847044202495
0.45850632339146913
0.4500409620176974
0.45199496029590885
0.4475824274744178
0.47829164959863835
0.47391990371075615
0.49037087613755104
0.4951027968201672
0.49758595330536837
0.5187194418802634
0.5460061434237202
0.5576172329828205
0.5855741460214741
0.6192726104379889
0.673351653988894
0.7016350723453074
0.7341992583950117
0.7873880214822698
0.8185732256861374
0.834045023104135
0.8556799973620428
0.8618378985462712
0.8681668036971765
0.8290011511121758
0.7687975492809012
0.7006278119282334
0.6586589514043297
0.5884743996891657
0.5339918974464578
0.5013484129655981
0.498542520809481
0.4637246788979077
0.45349309808524235
0.451954314599105
0.4630520074658465
0.4630272181274965
0.46200795018083596
0.46731078721555736
0.48748024614183
0.47915780458301976
0.4628032761551017
0.46087592091398877
0.48113540719320175
0.4860716147526259
0.47159173463332954
0.45034835513803345
0.47012894603586775
0.4701968357991321
0.4384194957871541
0.42763636340714795
0.4379088656867257
0.458272838285718
0.46495856009184033
0.4270915530784324
0.39852865803508386
0.4299200219323219
0.4355668777448639
0.4087455651986245
0.4065829190965906
0.4145803750170308
0.41641230454017586
0.4074291290260404
0.40901242252478254
0.43046607525744357
0.46636298763869866
0.45945964432444386
0.4560640393486932
0.48381607891163814
0.5053884724969506
0.4891625818675043
0.47907735738594315
0.47173610880229233
0.47455842923477654
0.45471123429029514
0.41544011832373656
0.38840498193644746
0.38599792920216125
0.3956950190255335
0.3779937631521543
0.40291600917814935
0.4101496622562393
0.4087108363501124
0.4915305130978152
0.8806296341470503
1.0
1.0
1.0
1.0
0.6022858674268684
0.24006461024941883
0.5745896837817355
0.5012573286545055
0.43488811770061986
0.41975555441663603
0.42754272629788803
0.4138524179685021
0.44229319096267916
0.4399464103869269
0.4498879098186662
0.45501643541830594
0.4783265343405055
0.497733778161303
0.4929726834521393
0.4764334680569352
0.5184978114281196
0.5489057086917517
0.5703125806154479
0.5592411613352185
0.592059996855353
0.6445164761542991
0.7049922782175251
0.7333855639037448
0.7704097790306735
0.8083004815127911
0.8312715943383091
0.8298846879533022
0.8132172475506891
0.7621190207516286
0.6999613970940846
0.6211885598174369
0.564740424496102
0.5446138003518802
0.5114896462957315
0.45581757882779234
0.432839533527584
0.4277546631204171
0.4409654497967139
0.4419902024810646
0.4299434815478331
0.4139999534558303
0.43544137919059295
0.44463070113821307
0.4404142171827335
0.4256405033359064
0.45372077634198293
0.4478998753622596
0.4289604810506309
0.43148584384288313
0.4608067990979488
0.4421951520071289
0.4189063827904452
0.4171595639147103
0.44084267403016797
0.4233069499629245
0.38737461610630197
0.3769285927489097
0.3967816409225292
0.3960806585840705
0.38480193112547434
0.3703867672014139
0.3829002101465993
0.3895741339692528
0.3781848952062874
0.35495593634242867
0.3557393099127835
0.3802659141432296
0.4283720684151436
0.4278176912143964
0.4016274494004949
0.4047480884496447
0.4278298013045809
0.42346276185976184
0.4557919612174183
0.46679254177173435
0.4621437197755044
0.438058787150449
0.4357675717348982
0.4316912745225482
0.42115676371038074
0.3566842295582956
0.369133488773103
0.3892927469936415
0.3868878147029706
0.37826104256549475
0.40080583973157535
0.3896826352509978
0.45118286507017225
0.6251152492539035
1.0
1.0
1.0
1.0
1.0
0.4134441700310704
0.2150644705826855
0.57535402340285
0.5005626578226798
0.437192391599142
0.43803209775921303
0.4647582169838377
0.43541141667855615
0.45063168457994995
0.47442762400697164
0.5053761888300579
0.4882885169765571
0.4857586368270369
0.4896291731663641
0.5092449587306942
0.5367047195959159
0.5584094317595996
0.5790187626208925
0.6025624268633027
0.6277220063276545
0.642624399925383
0.6758541164170848
0.7235765244525559
0.7679275324712951
0.7932038399131667
0.8053873194349798
0.8554662456255013
0.8822129502086629
0.8626101247583502
0.8518256488814829
0.8261374693557915
0.785226365366867
0.7064703798713061
0.6574950445626996
0.6114088646145899
0.5599340156245916
0.5169355134903733
0.5046221837446718
0.4952236762981328
0.4920865591104258
0.4809334854580995
0.4663048378364306
0.46621681011200405
0.5008633635240639
0.5108067969424448
0.4947099543478551
0.5044508774621865
0.5181636782343243
0.5220139255030343
0.5126728851821827
0.49997261225171374
0.5154481117573096
0.5397383314552224
0.5192443812063497
0.4986242607875594
0.5149817316507594
0.5161799357785662
0.4968222716029911
0.49518325961342136
0.5054700946688355
0.49977146554380647
0.48255288425161125
0.4729792478838443
0.4823530209974374
0.4995705417884186
0.5011515340780707
0.47046089229783317
0.48301232481981105
0.4973370331284495
0.4883707293876408
0.4810850596751818
0.5228559623507282
0.5617142349107078
0.5479325118418749
0.5455204358611291
0.5477999136110184
0.5587893730182053
0.5813786017923246
0.5773097643834286
0.5697839498758464
0.571572815169642
0.5622299688126509
0.5028581388919826
0.46686419883975566
0.46722517325859725
0.48144216143719376
0.4769387698455561
0.4655258097980418
0.4652932039363584
0.4912354092383605
0.4956575894725363
0.7465738500305452
1.0
1.0
1.0
1.0
0.8212559880992526
0.32988153667862574
0.6800961348154846
0.6349635676737734
0.5239547298266186
0.5168713298642897
0.5266753983678718
0.5113988468749711
0.5098447338161923
0.5196208164973499
0.5457517660392331
0.5412598297388309
0.5500197148238739
0.5657823177678616
0.5895610897637817
0.5720772049605075
0.5809892267038678
0.6061640457690484
0.6454313507635959
0.6613893407073437
0.6690422462105716
0.7058468514643621
0.7679310422648296
0.8004268437206159
0.8230801532503094
0.8564015796604945
0.9141713993820263
0.9445002727310282
0.9226150872742742
0.9091912112355818
0.9054442914003904
0.845266428615699
0.7723247519601981
0.7214940849191592
0.6858599272493826
0.629733502481401
0.571731635515728
0.5497202301174754
0.5504345346014695
0.5596774006557033
0.5568147855529728
0.5326544595179342
0.523738927626434
0.5467441873732379
0.5517015485897423
0.5459501611456982
0.5430459764821357
0.5550615687013953
0.560893620112464
0.5597807316044896
0.5572810742325022
0.5664640505838993
0.5583115151818207
0.5477550538491697
0.5381370837521418
0.549336405002631
0.5587280912621309
0.5460504055412494
0.5296203561016612
0.5528490023064399
0.5513896769712059
0.535334394690276
0.5437922533204729
0.5482081778482798
0.5410907883528911
0.536301621361529
0.5258340988402914
0.5254859858766032
0.5405766469030823
0.5498511686367262
0.552830182943193
0.5838720351588796
0.5993133394804517
0.6078625073053963
0.6044224576166675
0.6184118876204294
0.6348183318029512
0.6432623177425559
0.6301828973623405
0.6071211622674723
0.5628913761889336
0.5255662961672214
0.4990889860821107
0.5081679575645566
0.5150463265984027
0.5162551183361734
0.5108945354226333
0.5017968922312859
0.5477590480453827
0.8851911982969531
1.0
1.0
1.0
1.0
0.7828350610428956
0.40741246040660445
0.7069455763041781
0.597867462586368
0.5405775651662121
0.5252364028530215
0.5308653985886332
0.5381924475870312
0.5560878627050461
0.5403332158487543
0.5419461305694239
0.561990978749578
0.5673377770743676
0.5699184928504886
0.5904185028517615
0.6067821363742095
0.6268871670270523
0.6351240880267646
0.6638724695600807
0.7147045060442656
0.759044367399594
0.770512360374991
0.8184905318848059
0.8752134177058128
0.9043010354103359
0.9079524758761993
0.9135500277870477
0.9103006590234365
0.901083683863748
0.8579933871303339
0.7926156945249672
0.7045981175555308
0.6557339715026379
0.6020559292149497
0.5587447215437791
0.5244764190729838
0.5359369196372421
0.5299330998878214
0.47643838309300834
0.48207229693482223
0.49618454487708596
0.5038940678111399
0.5016141586081917
0.493580350066053
0.48028151476371483
0.49763284622666165
0.5106955103425548
0.4911923726810457
0.5027120460911509
0.5042702217291227
0.4793785830523998
0.48062497204296895
0.4838702375216733
0.49753322400082584
0.48234656849138025
0.4633417399890714
0.4629475097185768
0.4630987576917315
0.4517251389631041
0.4489684508531428
0.4607310095943534
0.4657147247849115
0.43763175175676905
0.43252838970105606
0.44007490712131625
0.4573986243738388
0.46027706010434544
0.46229807172325704
0.4627679898207592
0.48779794259315157
0.5172125316497544
0.5265451556964383
0.4988628218660824
0.5162857164167862
0.5618984118216539
0.5624363003853693
0.5412140894455333
0.5461095385547581
0.5481784508035327
0.5194658107097476
0.47216733546676454
0.4554574949157165
0.46989443979970213
0.4907872272625018
0.47307256208065995
0.467787429926665
0.47219438389421475
0.5299283167806693
0.672260704605922
1.0
1.0
1.0
1.0
1.0
0.5116905371612133
0.3643710780562552
0.7000700634305395
0.5519752740405452
0.508977333500902
0.5159039235534082
0.5308772773941952
0.5195608025999578
0.5423689198251973
0.566972067265946
0.5895881255452584
0.5621461100719197
0.587572639004858
0.6213917928082646
0.628435016568947
0.6265351746804001
0.6611385429705592
0.6896872690322737
0.719157707423408
0.747103204211937
0.7958134493667638
0.8459617046607584
0.8977019198858625
0.9199476919900107
0.9351847041300644
0.9687364159615329
0.9684515640332517
0.9285511260542829
0.8899853639317161
0.8379225732664066
0.7904679544735578
0.7242610158234111
0.6720446207924762
0.6293530344063241
0.608239463759695
0.5818510651823199
0.5499847158027185
0.5463496738147009
0.5551984024105672
0.5599943040725354
0.5486146591222572
0.5450719629834748
0.5616161546334242
0.581529521340882
0.5857852303028843
0.5843939862209239
0.5806025970385125
0.5646419040514272
0.5772160685808393
0.5862514245974937
0.5827913039826341
0.5866740383989549
0.5839319922835466
0.5656013184482578
0.5708744285280678
0.5912811732045476
0.5825524810523242
0.5412306541022569
0.5391932335322995
0.5655693066006393
0.5612254831348795
0.540896545402186
0.5433568050417299
0.5623028098912685
0.5636945345828904
0.5446186263185352
0.536205537583845
0.5616991345523997
0.5659582406440217
0.5892481898103437
0.6119915074920471
0.6169497327056652
0.6088281985489473
0.6234928937075956
0.6520078686333395
0.6423285006925458
0.6440613386456624
0.6431460030993182
0.6267964038402543
0.5987189298730469
0.5531749915890792
0.5396269920449797
0.5194455558410854
0.5296503723432657
0.5467076089210396
0.549328391540971
0.5329081780886225
0.5383412716574076
0.6555710524468306
1.0
1.0
1.0
1.0
1.0
0.940525408440845
0.3582467482869557
0.7052328562371041
0.7111899179504146
0.5656400560151195
0.5471500922895547
0.5700020101358187
0.5598171642628565
0.5527837087013292
0.5634380510371756
0.5660526524497719
0.575189375285973
0.601367968226963
0.5976952854065585
0.6008377925323029
0.6495358082835867
0.6638024104993343
0.658951282171372
0.6870730168835885
0.7503012825628028
0.7631944624428698
0.7872849422879877
0.8193571264265888
0.8894938448918376
0.9300143298978855
0.9637007197870755
0.9885026471843211
0.9803141441013233
0.9705172837963701
0.9572926539580365
0.8949909018086448
0.822695502450862
0.7617330608400918
0.6969587203363131
0.6334504903306002
0.5945898549888919
0.6165813480978759
0.5988425997372762
0.5533089152830499
0.5455520697956409
0.5672437904586608
0.5713071816374174
0.5533130322013406
0.5586452883339326
0.5679404093949181
0.5677577839923689
0.5645877062438622
0.5660805957309208
0.580686792305146
0.5786823161030825
0.5619608565355156
0.553812449584876
0.5614301509969193
0.5593011780069133
0.5483418025286866
0.534722638824595
0.5162095482979725
0.5397077952138666
0.526834562948566
0.5119680542070143
0.5206058491234015
0.5299608000608869
0.5176713842928524
0.5047208264564915
0.49902146667476177
0.5009998495238419
0.5139804308482094
0.5036843463638772
0.4943869825365243
0.5168189419623948
0.5376377716853264
0.5336597603751649
0.5202858861530443
0.5584773816090369
0.5915231508517851
0.5946396915038665
0.5608758958771943
0.5481871656549172
0.5595246826626232
0.5366770024324834
0.47309926318174655
0.45618196307822634
0.4393525048778577
0.4517546822692773
0.4371312841632172
0.458816532434291
0.4680683552087787
0.4699686670041328
0.5618325403901789
0.9847111667188837
1.0
1.0
1.0
1.0
0.5068686626714207
0.3553425144701622
0.6573408354114025
0.4746500467201554
0.4412307289606964
0.45629076307240235
0.4536835450300816
0.43814425753855185
0.47568653174011244
0.4905124703337063
0.4972125615816809
0.4760373337450579
0.5114423744843934
0.5199436852747854
0.5409423351892924
0.5593647985669341
0.5583327410917132
0.605882468712592
0.6461450637853601
0.6673885065520171
0.6834368971091745
0.7243076989900128
0.7853212665047614
0.8222948253755646
0.8461476455027478
0.8852751369900507
0.8977352290490858
0.8998342900171981
0.9092589844838965
0.8874632580108155
0.8390256052826601
0.7394104690785661
0.6764269720476317
0.6398802364467597
0.6114926480056202
0.5492253822306438
0.5177011139407893
0.5147669666216166
0.5258156333267608
0.504241169076958
0.5031134449199264
0.5077029723091595
0.5203159311271796
0.5123088837930078
0.5218472212434158
0.526462284579136
0.5382948247669684
0.5521315949158425
0.5404169380975914
0.5471188152899998
0.5738924591198007
0.5588338710670164
0.5340918585300036
0.5212288174187983
0.518943332395954
0.5227762296220126
0.5099626846768094
0.5102772177312829
0.5039554276056006
0.49120186711347796
0.49210094677824073
0.48598440122490494
0.4778536657458051
0.5087899346007837
0.498219065012458
0.48710786262055167
0.49151406873879705
0.5009763238966495
0.5011908295841783
0.49580041025898386
0.5007284790425433
0.537394687115705
0.5651706450535782
0.5615334815100088
0.5570897704456081
0.5784267811737888
0.6084576807531654
0.6037448150258391
0.5911008962644809
0.5899158587643571
0.5978600731589506
0.5500540414170472
0.48034082401912775
0.47465843294159865
0.4889214751139324
0.4784722684564688
0.47289857717363953
0.5015318605806118
0.49315472774158914
0.5145664168571185
0.7402716107469047
1.0
1.0
1.0
1.0
1.0
0.4383792425397748
0.47082452160588134
0.7169500632436205
0.5504331690058082
0.526956043859051
0.5211762561720544
0.5156613028500499
0.5038694203479613
0.5348533651024623
0.5545009946640473
0.5564253490268927
0.5483941935820126
0.5637338763257428
0.5909820428890257
0.6107212523979293
0.6198773114128665
0.6455583629442311
0.67166266822183
0.6918257048307699
0.7064196634091194
0.7636307452321569
0.8232142137948248
0.845841276930902
0.8902578528657475
0.9494203864347247
0.9865486013566713
1.0
0.9762476675915052
0.9496176771613444
0.8958770486726518
0.8362696446853871
0.7402460076899979
0.6823827367654564
0.6222516102587808
0.603495157415393
0.5755904706499985
0.543051591776466
0.54381373419782
0.5590015319162854
0.5524624877241185
0.5383194679894567
0.5207984866086433
0.5457606227582986
0.5567475417091997
0.5466007102037904
0.5459627697400775
0.5671991947729746
0.5593354000214273
0.5579037620349618
0.566622435742078
0.576517634355912
0.580940474763913
0.5519845756210277
0.5338221898759702
0.5576952152986797
0.5617697606990106
0.5553248944285124
0.5246097585923145
0.5238549304320419
0.5615130759287512
0.5490622124358346
0.5203505869591417
0.5337316265116647
0.5334112733906547
0.5242214001406162
0.5137378835124644
0.5201750635152065
0.5329579075089425
0.5385425019066032
0.557490098190469
0.566257714355187
0.5857218080080868
0.5956752004665538
0.6073376162150409
0.6182065944037582
0.6113844952254195
0.6059364611774338
0.5920962090323182
0.5676380774918963
0.5512857249011753
0.5027146601239361
0.46018322742378526
0.47487307942612944
0.503749828980264
0.49719586125470083
0.4913857786905867
0.48070068482474726
0.520753870225778
0.801010124925206
1.0
1.0
1.0
1.0
1.0
0.33182894662508083
0.5165050130270114
0.7195963312983752
0.5022039476332026
0.47134271827563845
0.4733095468680763
0.49257676039197734
0.4922133957037579
0.49999659256423656
0.4909758559045664
0.5184840801164539
0.5309816011031151
0.5432944277808419
0.5284714087425582
0.5262279219965385
0.5908208915438429
0.6209797299461092
0.6280789727788167
0.6806202507178278
0.7211451406822607
0.751671151530441
0.7735718998295086
0.8294849232748615
0.8991579566316954
0.9224395936856812
0.9264504399968365
0.9407662131408341
0.9387240558520787
0.9048105782482327
0.8289278587988562
0.7376707091100908
0.6761153416815585
0.6142966631363196
0.548986876999297
0.5002817540762721
0.4799432401019019
0.50688790038247
0.48221480264979216
0.4368461965271571
0.45702767257526283
0.48365469620974066
0.482607436873729
0.4604773310980318
0.47155132035310443
0.49156833732466526
0.48322004742893643
0.48855947387447196
0.49001001353336876
0.4790733356421465
0.4744255488029959
0.4621126859233288
0.44482427389966384
0.47200828908361103
0.46616604861930344
0.44690348807078417
0.4293692368033871
0.43748947434661156
0.4376020737968786
0.43665856926391494
0.42155632868666765
0.42107962960727663
0.43273767829132603
0.4199515232004229
0.41429207462854406
0.42875709782992094
0.43257399614315195
0.4277665659504707
0.4414264405028132
0.46771307577186133
0.4756207328026466
0.46421664056285455
0.46323492246544024
0.4891644209543122
0.52554266608234
0.5398512400444239
0.5197624895253669
0.4932087786056443
0.4895682343979053
0.4717977030972742
0.4149718419972864
0.38129274386884615
0.39357178853841923
0.38750468784250974
0.37908442666125863
0.3748144219846167
0.383548458616914
0.39480170978951545
0.4429975271036851
0.6213336786160607
1.0
1.0
1.0
1.0
1.0
0.20783418395086217
0.31231058180975274
0.5786598671635806
0.4525719418215239
0.42442924372695157
0.4028726114038605
0.3905555535325675
0.3750647394518903
0.43277506333988497
0.4311816744134436
0.4174951383080379
0.40731124449947853
0.4571265397711787
0.46679296832537487
0.4782936672985018
0.49199957211073075
0.5111281165297362
0.5131310504767934
0.5271688172550321
0.5530579131222916
0.6191637936215892
0.6707439697148009
0.6998736860273376
0.7121560224549842
0.7499598868553479
0.8149201148140455
0.8696097415346957
0.8509971731266498
0.8538817428204993
0.8540751796236264
0.8226836751800505
0.7560641708563223
0.6891215975328
0.6442976379742927
0.5752311855917656
0.4977120414516943
0.4386793909061722
0.4120839896086272
0.4460460406333297
0.40577842398157393
0.3885528860323807
0.4118759068323147
0.4304675278896653
0.4101939997770822
0.4243454987753633
0.44200736267262153
0.449042864084801
0.4345839295935329
0.4277705034145896
0.44365490685258535
0.4713940045366166
0.44899362572695106
0.4530520031511741
0.45017458576756625
0.46744438668607097
0.459431288848403
0.441578098966272
0.4333100813744151
0.437368532688693
0.41786007296918665
0.4273933179695061
0.42457799311906774
0.42308145165131467
0.4246289954024444
0.433154970795389
0.41841220907900123
0.4342927752312626
0.42549298970708777
0.42548404955432495
0.4135869701423478
0.4449418148427533
0.4831408906260963
0.4860946715763208
0.47441098896809103
0.4927547807466775
0.5321526784620123
0.5602817371138837
0.5283723418419399
0.5121604563353916
0.5212665941909594
0.5198535010151716
0.4367856734855753
0.41026129990972116
0.4052720738259121
0.4107472795932319
0.4054924034060023
0.4199662716649879
0.41525666932236405
0.44306093723996065
0.46842758249219524
0.7931935519405345
1.0
1.0
1.0
1.0
0.4595156039681488
0.34129801632669926
0.7041952855601957
0.5008969428638337
0.4442040656458019
0.44039808421724025
0.42810426514809696
0.4192691703653253
0.463127246864813
0.46635588089225877
0.487331842368705
0.4721584565785958
0.47293515389727964
0.5198255632156704
0.5563444006297871
0.5583060506456998
0.5623001075350796
0.572231140915154
0.6014597280501274
0.6231611954462482
0.6667364268891386
0.7254557857460684
0.7847095231456602
0.8075291783634133
0.8481041599977983
0.8969581151155097
0.9487167822812064
0.9522963921402996
0.9575287875846726
0.9385123707108403
0.9007871343997443
0.829583319178281
0.7410527797386695
0.6590070436962584
0.6174714815908354
0.5722484305402824
0.522556758530232
0.4987469721216799
0.5153791854332966
0.4916319978741073
0.46606768391969144
0.46474508185319524
0.4764033813588697
0.4949079165655462
0.4909848072201909
0.46637994417994755
0.4815687034752383
0.5206929741480486
0.5183555208203846
0.5115179822086005
0.494750309049374
0.5143205527857131
0.5086351260927093
0.5017668150935393
0.50724917362555
0.5143205475264664
0.49321097394223185
0.47939801512124347
0.4807737527834943
0.49274672953253046
0.48564036540284744
0.46474694274040707
0.46415703726058083
0.47286989345293523
0.4857073413172782
0.48936867168922255
0.454642946819719
0.4590765806873828
0.4794009452705493
0.47420283054914414
0.45818564060842737
0.4796681529223982
0.5255273829747471
0.548185923061146
0.5303479301771217
0.5155844014752097
0.566593234937641
0.6069759918639314
0.5932464199610785
0.5472549250878469
0.5486775155956755
0.5460360692958928
0.500094109532027
0.46841455950849714
0.45985812166848855
0.45358150640760025
0.43512169223958586
0.43778950988991194
0.4626856917206289
0.45397972440224965
0.4964568237067807
0.7687297929848567
1.0
1.0
1.0
1.0
1.0
0.259257832383337
0.6442757350051911
0.6347274571422332
0.4655666781816207
0.47845828247052025
0.48837057106403636
0.48171307270110075
0.46851244422223226
0.4899562353762513
0.5100922719770415
0.5119092023938357
0.5072064434735929
0.5314705270451179
0.5658778926576997
0.5668109264624746
0.5803737711757284
0.6271304128693632
0.6605175333624342
0.679725372784267
0.7166204818129046
0.7879392543180849
0.8452351465471721
0.8729591796489855
0.8968469154944987
0.951547665030939
0.9761268915501413
0.9309588426928436
0.8699500552378501
0.8090253597821558
0.7468204259973674
0.6557967655629048
0.567025836019295
0.5092270127508438
0.47999127725861107
0.444585777179957
0.4217550750801882
0.4209345256029008
0.4491895168812384
0.4430528567933304
0.4013219264976793
0.4049556727880635
0.4225393403257538
0.44075681808837175
0.41842099009139566
0.4096578311147384
0.4240179303588841
0.4257390716418442
0.4243324805726948
0.4161864163631857
0.4326120478430747
0.4354207924620737
0.41748621860053003
0.3951221152879446
0.3991930784033232
0.4098240364374005
0.3971659351694593
0.38537786736774715
0.36611581985528063
0.38341234424887893
0.39674896197090276
0.3691321394322259
0.3541397323752866
0.3631208444804338
0.3710331635627118
0.35704730377722627
0.36872602223607687
0.3722511365984489
0.4014864972006585
0.4118857346463779
0.41064800427836845
0.42070105948802433
0.44373291216698724
0.4470499991380265
0.4495166511133535
0.4498079162613804
0.4538705260536714
0.4362736458894731
0.407177962593556
0.3963914486431747
0.36620872080835054
0.3261679928993002
0.3114908827658858
0.323729209459296
0.3434814348487928
0.33987753971431045
0.3281100474751473
0.31358813963613635
0.38640718120598894
0.6685643394016296
1.0
1.0
1.0
1.0
1.0
0.14078810335462855
0.3424935759922366
0.5315470558702855
0.3559141457106933
0.31607592476984403
0.3254636484753569
0.353853710726378
0.32668577361727225
0.33028994449791815
0.33431825831296386
0.367547784718765
0.37639230329183915
0.3781773533173771
0.36746013493282537
0.4109558635204654
0.4274856085473043
0.44722404644510727
0.47172075519744333
0.5105753273609983
0.5445118677875095
0.5768732559164309
0.6203986097879287
0.6861122660879426
0.7447066389126664
0.75243709763127
0.7591895396364904
0.7786015324645466
0.7739280680745632
0.7164701491203942
0.609091400801948
0.5244964099310764
0.4636192407059803
0.40543546763928734
0.34475892818306997
0.311945622952691
0.3058497439870989
0.28930070780660594
0.2635137014206275
0.27208184231884236
0.278465550050961
0.29227741278424396
0.2809921459340215
0.2791659357167834
0.29548356994695235
0.31907094751013876
0.29893208366378915
0.2936831256677218
0.2990924735584347
0.33796402154379346
0.33445517074289804
0.30544962748602406
0.2912717133786685
0.3090579553092631
0.2982197587654384
0.279473199325501
0.2810617700859599
0.30550314701522
0.29285851531358675
0.26338346430688203
0.2717503578383134
0.2898784682575055
0.27145370060084084
0.259601840476172
0.2723914070395656
0.2906238297852065
0.28861964720787464
0.27546760622497385
0.2765952608829396
0.3084247766082161
0.33072597408892007
0.3233172458199799
0.32152937372786816
0.3212095237248906
0.3318156563231442
0.33626991451273874
0.3188845596439382
0.3044302091288377
0.30629755686884697
0.28158380637384983
0.2389843310439823
0.21414438647308395
0.22581064121262212
0.2343250325965136
0.21863057013339793
0.21515961666601383
0.2319033020131216
0.25586784126329076
0.36932715877724726
0.72140380458856
1.0
1.0
1.0
0.7278218878096407
0.0
0.1257150523842462
0.33048685865538224
0.2300123634236197
0.208430817407064
0.23777913441101178
0.23996320384390976
0.2120356452090173
0.22924830285999157
0.2553583110958022
0.25147930999675916
0.2533212746192807
0.27043339949313505
0.2909320450920314
0.3015725952640606
0.30792605542382834
0.32280428570053854
0.35524853714234067
0.37196709211158724
0.39123203977802035
0.4282882901047613
0.4702588929243417
0.4915865843801133
0.4980048437572472
0.5360737501783862
0.5821696381801098
0.5974454259066323
0.5697323994977925
0.5302041991866074
0.5083975371165815
0.4816792041823607
0.41216575029473634
0.3468420254098853
0.31801253319375344
0.30121894743738786
0.26520565409787134
0.2576820218673228
0.27276067488251843
0.2588702495344287
0.2330884616042975
0.22971718869359545
0.2430801982042225
0.2564822910959453
0.26201448188184073
0.250687677040687
0.24936518362140797
0.27192464095402574
0.2779503779804959
0.27521332633030593
0.2752138143343057
0.2849935225075832
0.2914851320933138
0.2733370671268115
0.28256559550858446
0.2920008662273876
0.2832033504554748
0.26661074492811626
0.2530261158057009
0.26262738221737825
0.2795277884009003
0.2808417172074217
0.2701893646169843
0.2777691717493772
0.2880765211874329
0.28221553461030213
0.27450161672634
0.286119336993745
0.3116995879172234
0.2964144060966998
0.3048505447653783
0.3554884528862643
0.3738436403560052
0.3748598557328796
0.3753547364751092
0.392812062241203
0.427532835386094
0.43954346645719344
0.4162319561777411
0.3882057025383414
0.3856323299274732
0.3920228843783642
0.36358773375328945
0.3012423280991894
0.3135873913365132
0.3523176467187294
0.3528499025265596
0.34190573179518446
0.34929120876129255
0.4027500763093806
0.5092936379900942
0.6751787372337544
0.9544674809239236
1.0
1.0
0.9097275797584412
0.15588003648478196
0.270025850826773
0.4837986079330399
0.432531095792369
0.38506982481739627
0.4100560066031534
0.4190402728505102
0.3991641464862668
0.40238525996937174
0.42377612682604004
0.43770169465904074
0.44712975385301396
0.45531908277557165
0.465489289847028
0.4914388936505829
0.48671900586643846
0.485534983024768
0.510380592650626
0.5505435611862278
0.5628338305238204
0.5686625794041931
0.6192706623837371
0.6661015593758038
0.6959184908887969
0.7029976603318628
0.7310810678664852
0.7511507307440606
0.7733169618338389
0.7812508216374744
0.7552592371641789
0.739166583864424
0.6877949057624366
0.6367669873205809
0.579887681581187
0.555041142085859
0.5235312481774586
0.4853892350649012
0.47731369884597125
0.48477533904493564
0.4837003354384266
0.4743107899262194
0.4733459426697175
0.4741975286331467
0.4898383896860741
0.49463933612754973
0.4579847478880622
0.46338603471740447
0.49788220336013655
0.4972822416716934
0.49068172948753197
0.4872960853723593
0.5040469210894473
0.5203916760513656
0.5107722878458643
0.5113291163223188
0.5084484053457641
0.5185158702389903
0.5090643265797491
0.5056334208326774
0.505088498141484
0.5065207288521592
0.5049389477680697
0.4921682617384474
0.49753068929412514
0.5232119393247397
0.5167148388846884
0.5013915284031714
0.5035763892609555
0.5229793786459656
0.5181524948756219
0.5106178103988424
0.5188119674120325
0.528649943753984
0.546018950201354
0.5589556693020468
0.5837760067426081
0.5982875387966523
0.6032559752971787
0.613804282971123
0.6326443822433839
0.6348478355460128
0.6222718267549633
0.6131567623070564
0.5953644342913342
0.5811083089997766
0.575573289493009
0.552389856120611
0.515022783307661
0.5383638589438086
0.5472988941288255
0.5353949055764917
0.5360419169308747
0.5428277538466102
0.6123545292880275
0.8413438509311494
1.0
1.0
1.0
1.0
0.6678198006824301
0.3300732559658188
0.69133787206971
0.6844512988402162
0.5750041447337686
0.5444488289350514
0.5800753123977065
0.5735965139903711
0.5717651818263143
0.5708449867381697
0.5891380823779426
0.6079053444059649
0.6197875272835669
0.615026221201296
0.637784369614565
0.6518524664951661
0.6727372418464937
0.6804368194608795
0.7095670152362568
0.7380458539422772
0.7707660635340433
0.7806590327333754
0.7897698577162371
0.8467869482969512
0.8905972327218382
0.9133482314999466
0.9217714786875106
0.9424945962177741
0.9276024235002748
0.8822925078960427
0.8257264247859407
0.7676895071763576
0.7174329719305331
0.6709008277668367
0.6338147851782922
0.6205086107000367
0.6190270657422401
0.6049800342641045
0.5769984418395555
0.5779172881586586
0.5919419255386151
0.5920294139725015
0.5772209054713711
0.5836971918686953
0.6001892761733985
0.5987246712710725
0.5800631033878642
0.5839239378145893
0.6055735317612736
0.6098412900764819
0.5925217847382969
0.5868815382255805
0.6050364148094365
0.6088358460686102
0.5865704061109989
0.5644721984146885
0.5762762703940831
0.5856279224892076
0.572849272846439
0.5716892052687313
0.5896427164343254
0.5957905439754041
0.5976010488795881
0.5586378988686592
0.5378426651306546
0.5738960968087633
0.5784785201143701
0.5617830094236529
0.565381159137018
0.5858726378077208
0.592306418095704
0.5890103437840262
0.6154159263039574
0.6316857248415547
0.6327789881438
0.6333547265043473
0.6508907636213835
0.6511859231224006
0.6511697602012806
0.6392587088598181
0.6064989947206277
0.5654456191851162
0.5524087071475212
0.5479423186888128
0.5405677923921901
0.5568835681022369
0.5580906392183258
0.5425462493849728
0.5202370632098958
0.5513366142870042
0.6702775200002528
0.9702645679246451
1.0
1.0
1.0
1.0
0.3964781492768865
0.5371699619716616
0.7176402307913422
0.596432603750398
0.5626760105232678
0.5716073433744591
0.586256158693362
0.5736212204841279
0.5657674350596963
0.5726215479151291
0.6086622937631444
0.6067672626540371
0.6058560174012089
0.6016224289869285
0.6295163072141176
0.6650982476127212
0.6731809157028209
0.6713350939324413
0.6994996907626663
0.7398745045106887
0.7454425062656458
0.752870418059152
0.8140180189914694
0.8524256319499569
0.8657910335356671
0.8807067551450907
0.8991559126242624
0.9075748624196681
0.9046866951333886
0.8601847182851883
0.8081512540022453
0.755007046579012
0.723201311829768
0.670082907565788
0.6400292436295952
0.6071977707092961
0.593156129834707
0.591321082257507
0.5944309999100554
0.5845778454476843
0.5762140332420669
0.5703309422107237
0.5735537445551593
0.5769284872593443
0.6051898702147487
0.5847634308712277
0.5731790494678665
0.5757155909561498
0.5916056372418653
0.5931044421490188
0.5788853685593283
0.5741830328660605
0.5781372145406314
0.5753468555810702
0.5663144275917064
0.5572175057980477
0.5603332142751333
0.5536577436577386
0.5538577463032472
0.5402858929446597
0.5508095281386473
0.5588480863340877
0.5582692326302217
0.5407433896390009
0.5321438857938677
0.5403365289702368
0.5271557039691493
0.5180680582883164
0.5274818502723531
0.5372694175883506
0.5387406616752035
0.5515280529436698
0.5800340775011744
0.5870535220168681
0.5874566475868684
0.5865629297017999
0.6069241221636993
0.609356963358286
0.6000513967166612
0.5809774175151168
0.5701049088975575
0.5452534780452961
0.5223013563082555
0.4868598238941256
0.48512913719153483
0.48774692394508357
0.4970637675156442
0.4851803592629521
0.4849460042976276
0.4834407253708212
0.5221247695728148
0.6365939353632151
0.9722556817887597
1.0
1.0
1.0
1.0
0.48736889198325317
0.4022827959909766
0.6629639735302473
0.5490754803860903
0.5059750497557285
0.5035604073028642
0.5041369330446336
0.485149232759266
0.49461906896886915
0.5097339355210935
0.5187431286502046
0.5181713411302586
0.5194411377999906
0.5259072305842597
0.5420795467749947
0.5394255586104052
0.54513803127534
0.5669577331917208
0.5885544308869338
0.596092376644168
0.6158735622470135
0.6384919525368465
0.6780474446285466
0.6958155226678893
0.730817311476617
0.7578675040729749
0.8167812651693896
0.8321184937902666
0.8292685751776989
0.8390378329353115
0.848202035897628
0.8259129877955826
0.7764669963396111
0.7110422898369899
0.6569640587495514
0.611322295675647
0.5596664277805761
0.5280974470548052
0.5156749479127671
0.502972227889712
0.48812770387867854
0.47579977970330994
0.470309884925427
0.48347624505254244
0.49331633484535675
0.4790208389194327
0.483570204549017
0.4960694169983527
0.4976691135725133
0.4858564780556732
0.49021981097389544
0.503992865810939
0.4973435510437286
0.4806621993371638
0.47678926581998304
0.48394125931879095
0.4888355014225966
0.4747023181083397
0.4639824825161093
0.47502641490897907
0.4863571825481027
0.47195386076353574
0.45461892165720535
0.4641848162653933
0.46558047817486103
0.4526186352926837
0.45151987652983944
0.45527569525414846
0.4631327342006176
0.45617266450388094
0.43322208604474044
0.4366251006578298
0.46054267690790196
0.4794929637296167
0.47770454892731234
0.4816104655197453
0.49438210903531843
0.5078639848113463
0.508246527496784
0.5269421152216436
0.5279026470796607
0.5083439243420528
0.4886859358707659
0.46752525467861766
0.46266185527640846
0.4398954889395402
0.4075203150193946
0.3949077594905048
0.3961273325975246
0.42006244135600845
0.4158942987477811
0.4064331130128296
0.4362195915022384
0.6582549278573289
1.0
1.0
1.0
1.0
0.653151498315637
0.23091188114246042
0.5497450701998611
0.5299148400279637
0.4168138847616955
0.3886265299173636
0.39633490921934583
0.3998482418616146
0.4163746044811731
0.4118562016865216
0.4125998726092763
0.4196586785578803
0.43908234425949005
0.43587130167846694
0.4455900052911389
0.4591975886606966
0.487728523844254
0.49718499913549935
0.4998567483976248
0.518601982498917
0.5670562045989754
0.6080758723696322
0.6368499170255643
0.6698122290879058
0.7088329417261482
0.7356796110679162
0.7528961394293324
0.7583495137431482
0.7689784701328082
0.7430176461736575
0.6883650339987114
0.6242381804363685
0.5784759371183441
0.5332572218466929
0.47107824393242737
0.4236910502204414
0.39921330853891285
0.3967350669276716
0.37962615391148463
0.36491682693870536
0.35544625669312646
0.3645018117552173
0.3596790139793967
0.35634174199888
0.3572246594175052
0.37211437983534434
0.3707378414787703
0.3584201740438612
0.35840068171921324
0.37651790649810335
0.37789831954762454
0.35937800954010274
0.3491302058751599
0.35730673071106944
0.35697106347219265
0.35108621874432844
0.3441941093849576
0.34538528464622537
0.342159124203973
0.33123756940907373
0.3200678336919384
0.3249771562243532
0.3339680802040066
0.32428927177306177
0.31855858728074615
0.3215249934504648
0.326145075512177
0.3267443428826036
0.3235647694095471
0.32872838548281835
0.35154894857606755
0.3592945948315819
0.3569668069448925
0.35438756735020494
0.3676393559867107
0.39168162753462865
0.394872336648476
0.3815597832438349
0.3693050159375205
0.3652362182268952
0.35401917702045704
0.32215774090685073
0.28889657223227194
0.29123771657767966
0.29509166430566813
0.3016369965461502
0.3085793281353336
0.3193629464127944
0.3258184056619345
0.4366551382020081
0.8240605033349995
1.0
1.0
1.0
0.6198465986312718
0.138970186113914
0.3961587470216351
0.40258199490922103
0.3068404296397717
0.3151285764336035
0.32433918090925296
0.3226925573901001
0.32934747308233614
0.3381295674496877
0.3471407708825421
0.3506514034112459
0.360297774937847
0.38380963654925804
0.39077239520560825
0.3987696594938703
0.4091644678186201
0.43266863950672646
0.46423044390173657
0.4807874970833619
0.49637295377720375
0.5272134712688933
0.5704831271529083
0.6002425060800156
0.610264768712028
0.6180827917106627
0.6424695522292768
0.643926662374579
0.6114726471269123
0.5692779605492546
0.5349988859859112
0.4938469142359894
0.43398163450971144
0.3895266904734907
0.3820369453137077
0.382693146319545
0.3706343357735381
0.35814012700094916
0.35663184447075313
0.3647638864571161
0.3572282194681189
0.35885006337732916
0.3813784624086793
0.3958052370522732
0.38936078778649935
0.37904134929858957
0.3766401904830852
0.40184412924198726
0.40443780805809587
0.3874466610398913
0.3830842781773637
0.4006455906089412
0.3922526233978381
0.3806924178270894
0.37845547511705224
0.3867035141266843
0.38846879711868076
0.3724867526811738
0.3711585232905586
0.3939927093386513
0.39759043514017633
0.3819918865749793
0.3707283425766962
0.37705483706144405
0.3879754973117726
0.3886670922523523
0.37922375443776035
0.3904529923891058
0.4018019318528833
0.39513438407460405
0.40084979846962654
0.430118004498848
0.44689708430378194
0.43944742969339756
0.4337280701112965
0.4579374280933597
0.47638206850866494
0.46955986528118643
0.4527816913518924
0.4416853742239365
0.4489052682918365
0.4337255092644159
0.39725391595038156
0.38551223754888586
0.39018191583970135
0.3940486701007357
0.38866478918611314
0.3993563852788268
0.3991581948176554
0.4073868544179386
0.4591660086495454
0.6925066981797181
1.0
1.0
1.0
1.0
0.6538863053880641
0.3047997034718319
0.5292014072623561
0.4849571519444301
0.409084875850439
0.4201707343701627
0.41968875507929937
0.41390966316064565
0.4243934048002046
0.429706697492524
0.4438239897070118
0.4395700348773671
0.4354279849193777
0.4531394097934055
0.4667254333582286
0.47420267068667776
0.4777022580005449
0.49495232723611265
0.5258375406569069
0.5369297367889425
0.551135049232864
0.5861148861962852
0.6222439153689688
0.6487633139108337
0.6703308472032623
0.6956865172500876
0.7169915319727248
0.7170819636929038
0.6995971999446651
0.6912636042690046
0.6612957550312959
0.596264123818439
0.5354320340080299
0.50090140254951
0.48441750874020134
0.47026364323705705
0.4483126199182763
0.43539078912592394
0.4350413892487868
0.43484954435763346
0.43339686989462545
0.43420209668015025
0.4325493407792549
0.44594506830873826
0.4393101122623593
0.436616865338581
0.44814412420114796
0.4514260564391764
0.44489263415131874
0.4379711846260025
0.4423848974724162
0.45406283290598637
0.4475457858918325
0.4368472215871739
0.4340506806958591
0.4454525187876214
0.4384891327851448
0.4301084072418485
0.43125406357501445
0.431666118493687
0.42860951960892446
0.4227284159731486
0.4162115439894551
0.42996100652946767
0.43808828091859303
0.4278203452970156
0.4221010861450111
0.4267628815294485
0.4335136770117325
0.43495589907432075
0.43652198066445785
0.4653189019823425
0.4727014306058629
0.455230755126869
0.4581067803364266
0.484081004335556
0.5025390948181416
0.49198916128608516
0.474252662806759
0.4792044563879478
0.47118662933325445
0.4445287437818883
0.4070356180779224
0.4001625152010374
0.410517175270748
0.42123693630177816
0.41564856305069176
0.4057252395412155
0.40525720167540247
0.4444727087621394
0.5631789982855706
0.8957193673021312
1.0
1.0
1.0
1.0
0.4463729198687677
0.3748027373946614
0.5781306999017441
0.4711216709685326
0.42755958962571283
0.4362811889260539
0.449946858909957
0.4316861328650668
0.43736707467725183
0.4428043138989189
0.4604644067189402
0.45624819224865754
0.46301513094913416
0.47456867142948467
0.48667922103026545
0.48584295549197154
0.5021872478386649
0.5209557044990144
0.5476578153688306
0.5654233993478038
0.5752690390494211
0.6014020296102387
0.6452120411955448
0.6712629205811379
0.6876531038337145
0.7157871682230447
0.7413717332649312
0.7347192824629246
0.722475866060442
0.6897683923188912
0.6601263177069294
0.6057983550124493
0.5439560939058821
0.5104651988500472
0.4962583316970143
0.48349713617207
0.4667504454092651
0.4595242966279905
0.4630702144459361
0.4577609783856798
0.45478896371685107
0.44730606258062017
0.46082859783247904
0.47155372475549723
0.4568213937059074
0.4610569246068786
0.4683422641803123
0.47298192572921866
0.4703835625590834
0.4649309005891438
0.4622118634286741
0.4721162053990698
0.47091771761781975
0.46246128649869467
0.4563362714783407
0.45498752504447404
0.46064881076513925
0.44631554740726215
0.4521376558589679
0.45956752122096206
0.4518224975651518
0.4391770983637664
0.4355386793098074
0.4409270289133219
0.45531143534263857
0.4407927421939049
0.4318716271811338
0.43953837861430667
0.44512067668555816
0.45502196056924793
0.4688890059328032
0.4664621900030507
0.4803074291769711
0.47755521019214564
0.48780857565171687
0.5015011180202662
0.5049402193452333
0.4896033184824695
0.471988846883345
0.4585782378759829
0.4424906517034044
0.42313959614960595
0.4075311420663879
0.4106634320873459
0.4249650265041914
0.4230142023246053
0.41351670498034154
0.4154885299223293
0.4569906629310764
0.598952034158698
0.9139951931762262
1.0
1.0
1.0
0.7461539001934862
0.31273178777635263
0.5166660310071446
0.529783086359161
0.43811096704620206
0.4301590681001762
0.437548014858207
0.42454282960033674
0.421658682330244
0.42880755341041626
0.4399276469457741
0.45520913932569396
0.4583782188766266
0.454997869525644
0.4649861611392728
0.4866678134663207
0.4922553896120454
0.5008174117975511
0.5026909723943208
0.5312612677651886
0.5631549041334937
0.5796847009532462
0.6057365303630285
0.6373938210176733
0.6650526110762398
0.6816684156201103
0.6827279273496559
0.6896102288170743
0.6982345231542263
0.6780967611986479
0.635428843412872
0.587002284421513
0.5608580164543
0.5246282645143406
0.4779496543892052
0.4492725694647633
0.4377567247969611
0.434911874741635
0.424934123427336
0.4158811514990507
0.41819983945560013
0.419140974843736
0.41116911382587357
0.411863906654771
0.4214075236987246
0.4321092683127862
0.4262848383032359
0.4201008375803048
0.42741581891745445
0.436542932219856
0.41997194042511243
0.4107546606831525
0.414594688398665
0.4315267965401447
0.423855948132306
0.4062505406005334
0.40851582255630003
0.4128214309186662
0.39707462078582784
0.39599160553760815
0.3992917578475561
0.40702578190200434
0.40123876135622893
0.3848119526603496
0.38388002102862684
0.4077374587942436
0.39763644060400627
0.3797753958562787
0.37911017468803154
0.3877186190261005
0.40725647606251963
0.4182926891961805
0.410861242276719
0.41475194167426377
0.42630272245424045
0.4324557750097548
0.4451283650931443
0.44684714426606575
0.4394540964158522
0.4334918961943653
0.4263490607688987
0.417232143764031
0.39878314314040386
0.386404257097705
0.38577421281929763
0.3906165863945402
0.3960749964160131
0.40061891907092023
0.39044182192281357
0.4135128172529063
0.5282665583418329
0.8028700955119621
1.0
1.0
1.0
0.8022386689002449
0.28605528668430175
0.3767049714260114
0.509187259698143
0.4432366770554319
0.42500340696886363
0.42409907711683903
0.436990349198158
0.43620255336962366
0.4419100216024236
0.44325966587017956
0.45548286638770535
0.46676338880619805
0.4750876480643563
0.47516068622556296
0.48658984155821383
0.5026005417266206
0.5124719558421067
0.513427237921255
0.5334062322675875
0.5631720172117236
0.5844136845711775
0.6044311620739511
0.6320703113920818
0.6570746087473761
0.6815886699948905
0.6865524936935424
0.684720822847055
0.6931813109461689
0.6872050503115128
0.641827539813063
0.5995283084224502
0.5676288209260213
0.543629733544652
0.5116757147979436
0.48508706177756633
0.4682752051497647
0.4795951544578149
0.4738690443555601
0.460659650763181
0.4616569460423432
0.4734189185670753
0.47586105661442096
0.472418896336911
0.4773508187499115
0.4873499980038657
0.4854645553268421
0.4833862005157557
0.4893457310528774
0.4985782058263871
0.500055128127163
0.49141663760639354
0.4788602317504891
0.48203085220195385
0.49231936320886655
0.4820473706755283
0.4692656719551245
0.4811935761337545
0.4819213599391155
0.47350582751061915
0.4761868367803951
0.479330408585371
0.4861293844174691
0.4801563742245881
0.4703804708015122
0.46453130676527915
0.48250400095368323
0.479194263359768
0.46918121426358683
0.4692968241802301
0.5012926504439382
0.5175998691134078
0.5079251901407803
0.5064170278849744
0.5252906396365551
0.5421444878388517
0.5379101921451888
0.5259551297657609
0.530809167454404
0.5265694651354269
0.5077988697519067
0.481082526890809
0.4636146575667729
0.47502669620440036
0.48286764316358016
0.4691811713557296
0.4712767295508876
0.4748270739874597
0.4943067789414763
0.5753842934861032
0.8465153826813223
1.0
1.0
1.0
1.0
0.4408383531415769
0.49290724206386516
0.621002999250282
0.5033058214082297
0.4996699780493635
0.5095631315223856
0.5092032066354
0.4840699838951771
0.5019868101471128
0.5126148480034359
0.520777794371561
0.5145637326528145
0.5212327779000043
0.5395887254321137
0.5484440018401113
0.5436728267787041
0.5653778561827132
0.5880049613307865
0.5896252208022835
0.5972163068109413
0.6319102244294434
0.660688635270338
0.6863942907328484
0.7025318013291875
0.720154933045581
0.741198812127822
0.7665776780421423
0.7531589620269091
0.7310720787906617
0.7120494746197368
0.6759451757410149
0.6295158377969511
0.5927605444047084
0.5639265135975609
0.5492213543320408
0.5277309940758971
0.5167369267470673
0.5177848599535655
0.5184437524680959
0.5094709013696901
0.5075629539085138
0.5083077288760913
0.5197985741266828
0.5175286629857784
0.5155028197537435
0.518227888928025
0.526119675311477
0.5257561637722489
0.52511215941938
0.526496741246944
0.5298653601448019
0.5211248887182914
0.5100458594048263
0.5131749482979753
0.5169500864247116
0.520466106215705
0.5121943849298967
0.4998584727767931
0.5078550135971958
0.5095579568904183
0.5065608524355472
0.4999793880496843
0.49961310084763555
0.4992549477641351
0.5031735482088645
0.4921351102579868
0.5026788275775868
0.508979470870644
0.5095650591158348
0.5063825026610584
0.5275260532173418
0.5337717075072004
0.5347755865568345
0.5371059903364964
0.5521701315274308
0.5573989394917406
0.5496750451225874
0.542475997670876
0.5347059377431959
0.5275655671118278
0.5057039645617168
0.4837866397441587
0.46905521506184267
0.4744434023705197
0.4965318051562587
0.4824513091535552
0.4684693964678687
0.4690445033024382
0.5126858124138478
0.6540541188063915
0.9745136136941965
1.0
1.0
1.0
0.9305056773486939
0.4116644487447784
0.5232558907932379
0.6041645538645348
0.5031455958293496
0.4864996753415055
0.49078982884762945
0.48552960783549254
0.473444570679188
0.4820018111371559
0.4909296811168146
0.5020358495344193
0.4948740919429155
0.4971552000325724
0.5059580195359841
0.5259961670339988
0.5266644024049489
0.5341349052982973
0.5448823384074235
0.5574474786881246
0.5778635852600116
0.5943273057153071
0.6104472792722992
0.6441393560864228
0.6664574004517969
0.6792197909800747
0.7119121126685745
0.7302229676830019
0.7366794352564625
0.7384571556804591
0.7263531701316248
0.7130595060981166
0.6818051584806228
0.6283832075700311
0.585867111455503
0.5518098080565123
0.5250959132281958
0.48692923163991964
0.4720029301657759
0.47794363420500535
0.4831349730368325
0.4697223795302439
0.45510836951106926
0.45968846392404006
0.4698963768813895
0.47222089360914865
0.46588295323315354
0.4658947837264652
0.47723059356422165
0.4699979085025938
0.45886306682925515
0.4669398865084647
0.4799521991198786
0.4854449605000751
0.4655286261074939
0.4542478898621255
0.46312131473232443
0.4713879616906035
0.46107144632274133
0.44581959818387495
0.4533667698338986
0.4602452805121085
0.44851518770107807
0.44903525343658657
0.4447297176512395
0.45296930626976106
0.4487896019020394
0.4437956478307772
0.43788376408555607
0.4622455578982059
0.46061353204065264
0.46541240367480735
0.4698514375690118
0.48074573784208197
0.48899048027990644
0.4968345618642269
0.5058861337816627
0.5185910801239964
0.5091406122692946
0.4824063081838075
0.48215666768722076
0.4826820802643126
0.45813934125697314
0.430202203001008
0.41732244368702515
0.4281613063266422
0.43219532666253346
0.44920314929712424
0.42422019733504773
0.44031775970682985
0.5155214291174217
0.7759246169083668
1.0
1.0
1.0
1.0
0.39594012941419476
0.37369265507336025
0.5719752821780839
0.4826547337479701
0.4463269909180033
0.43421215351129394
0.45350780293334936
0.4434272848104771
0.4528650859873128
0.44868463055754476
0.46241931840210065
0.46904130126924437
0.4787928125884314
0.47990646491352906
0.49969861751864936
0.5142897040531597
0.5255807029887348
0.5304470772482296
0.5532500912381877
0.5745260366673741
0.6002922329016223
0.6156376253276187
0.6447586930716211
0.678696431170264
0.7065241610016262
0.7192590132612399
0.7393512667363834
0.7430767938315235
0.737440070958742
0.7149422302020967
0.674495977581259
0.6446799165626756
0.6048943759856483
0.5512501989425911
0.5084799401042349
0.49268478928309456
0.4905727463597206
0.48210821492088585
0.47741445229281
0.47330348321224625
0.4702824543998517
0.47051354550750846
0.4708406529467175
0.47992307563464803
0.49934568344101676
0.492551089874827
0.4849417948817214
0.49357653034449533
0.4962156548077285
0.49725249614742617
0.4968346009676566
0.48969008696374516
0.49916963411143794
0.5037896494730204
0.48706679451825885
0.48808469458643067
0.4950580921779567
0.491710047394903
0.4836812805118072
0.4709586496437194
0.4779271337432823
0.4864668188508049
0.4812302992933347
0.46670323256121726
0.4776366764485275
0.4852150150596211
0.48582326320935304
0.46951566919518956
0.4720421182277734
0.486768614639411
0.48407812470840783
0.4851733738562948
0.5036336237410622
0.5403626738623759
0.5383033798353316
0.5256223574326511
0.5334603894605083
0.5683599100058409
0.5632571196203635
0.5423958013929073
0.5289764009771399
0.5374066934125367
0.511691924616395
0.4791911562285436
0.4591901189351454
0.47646519854688785
0.4818229436669236
0.4767035371028653
0.472641002709371
0.48512142555578147
0.5280972662111145
0.75464030021077
1.0
1.0
1.0
1.0
0.5930061076632599
0.4261358553081972
0.6467853584918484
0.528283988046711
0.4972012080776727
0.482592940556999
0.5079872121069144
0.5035738715853378
0.510153813004589
0.500660540848734
0.5160829124665667
0.5263763286604963
0.5344331395205658
0.5342222159755259
0.556759092546397
0.574265000476782
0.5837207691153236
0.5906499707025592
0.6255623593595743
0.6553175104602034
0.6832577852986641
0.6954907324222827
0.749813763087001
0.7891668038484382
0.7953207832483505
0.792756241881462
0.810893844278276
0.8145390943854437
0.780945652326986
0.7127346424869534
0.6589107031174085
0.621184129192615
0.587811353080869
0.5479286979034148
0.5315544528114696
0.5191144963913932
0.5172035770840248
0.5017615146581725
0.495930697557316
0.5005665184957341
0.5182487719708597
0.5040325635392028
0.5009449634395424
0.5080829610514732
0.5214275834162143
0.5150179830052065
0.5086115528913363
0.5098335698254085
0.5303974906539954
0.5249915487017227
0.5106455228822158
0.5058098500215941
0.5167168829842728
0.5117315685412634
0.5027379227941653
0.4947834578466176
0.5125680348930949
0.5051805633731213
0.48807106730377275
0.4792494577650454
0.49043928804629455
0.5032877254078358
0.4976786575063647
0.4807582805673262
0.4893517360436821
0.49651873821212067
0.49668315619741865
0.49248777930622134
0.5025565556494345
0.536719870348303
0.5337962948203645
0.5250910287689581
0.5368686935534275
0.5614626043428588
0.5773852064501968
0.5594938186217023
0.5486067832351718
0.5568274736319667
0.5493672428071104
0.5064017262722802
0.4757090296987173
0.47729749208545524
0.48499777103533326
0.4664418140649874
0.46277260410986043
0.47270438554558397
0.4840717415625019
0.4733147180026383
0.5446864516708566
0.76972637810367
1.0
1.0
1.0
1.0
1.0
0.3889005494815656
0.542633654249994
0.6281314072194399
0.5089540562390156
0.49414041781199025
0.49845641919687156
0.49152756184592683
0.5032149936495166
0.5092965789307592
0.5037870271920138
0.5074836893275969
0.5241636766595567
0.5312527707833037
0.5313590245085437
0.5416823499228356
0.570058447132138
0.5815618062177779
0.5954243720056949
0.6090510606530198
0.6339405941478601
0.6826637122334078
0.7188718357317694
0.7285641484883034
0.7474667645279872
0.7866496161696098
0.8139396157016119
0.8070786590459196
0.7968574573779653
0.7762841494496581
0.7244312103866697
0.6641121459310928
0.6184763383753428
0.5771464691785482
0.5463168030532761
0.5042785753300948
0.48854291913529135
0.4914690919461866
0.49804367488079315
0.4762065630383578
0.4644863152494184
0.4737739918673457
0.47983379447822505
0.47969806266481374
0.4832026294515045
0.4961085969735011
0.4909843448641122
0.4861435072292274
0.4901728197742522
0.4834267127218558
0.5000302119858936
0.491276397673146
0.47770851658395486
0.47658768810369684
0.48775337059523327
0.48147775996883857
0.47547287015540407
0.4577280519175958
0.4696160223983168
0.4666529851539455
0.46628471405921895
0.4525390505649516
0.465569995754407
0.4589055064606146
0.4473784244904442
0.45088878115403447
0.4573956141377158
0.4685108616422672
0.4745102469950436
0.46867568598694787
0.48950285193476917
0.5037619331306579
0.5119424487683415
0.512080362822486
0.5183885410158269
0.5103824123525107
0.5056064203859629
0.4915839832325702
0.4826916500289119
0.4617531729951036
0.43243811635415275
0.41724094047273363
0.4325330834724884
0.43362724981331413
0.43949123887506847
0.4212768411977027
0.4285118600318302
0.5002644121519085
0.7344092132551349
1.0
1.0
1.0
1.0
0.6557219414362471
0.3235262199312768
0.6012907755944589
0.5447193489446336
0.46761199505500917
0.4502006498664743
0.46067732276066603
0.46137070057796137
0.47034093018794715
0.4634795673359663
0.47798630762865457
0.49571553706968513
0.5084230577112285
0.49748512004565837
0.5129064431444413
0.5441546730563123
0.5603690901501053
0.5599623255671399
0.5786880771882814
0.6058444451129784
0.6360822161622348
0.6656904635929157
0.6992920814372499
0.7417202914261185
0.7740659403390093
0.7856490189973059
0.7864108494918114
0.7977937350042235
0.7932067753300511
0.7611120365060139
0.7126075425751857
0.654077686248915
0.6081655572736963
0.5551741275951165
0.5097224843285025
0.48537175339518307
0.4792683863614925
0.46115034155773166
0.43720357273181065
0.4343084370977208
0.44535429194894965
0.4534915298486757
0.43823085511863463
0.44103265733043406
0.45694047917312003
0.4588826768856329
0.4493020348343795
0.44828187054473423
0.4604867671782382
0.46959015328899056
0.45783702568124846
0.445862473194975
0.4566645576011535
0.45381415009834375
0.44817677231639974
0.43662033728682276
0.4376740268457543
0.4471541976841533
0.4402005196976191
0.431863378433909
0.4308774716255056
0.4388998767407184
0.43845771747260204
0.43765621205202576
0.4204468002702592
0.4392911084873594
0.4384451019364734
0.42847436323817334
0.4205199437720057
0.4539430367683946
0.47829242340167866
0.47966773193230006
0.4844959580291491
0.5002418810594995
0.5193522346256018
0.532584405714361
0.5358799724480915
0.53614775967549
0.5391966601766726
0.5359974066173913
0.5128271469032745
0.4827219157899062
0.4546337874670601
0.4551069055454017
0.4587049195296449
0.46474824092363454
0.4623019891776834
0.4673567519306559
0.4500484877175208
0.4806263625729713
0.620147786084713
1.0
1.0
1.0
1.0
1.0
0.6129318158073591
0.3180925598159961
0.6421758361067779
0.5847220391871033
0.4990381980063791
0.49102154268750164
0.5145120894603602
0.5100655920793911
0.5024776908850719
0.494538379476223
0.5198810300406571
0.5390404167722663
0.5501587440675231
0.5465011039245652
0.555114261629709
0.5807237211382634
0.5900915075805441
0.6059829729088173
0.6345849435579527
0.6654478141721222
0.696526928344719
0.7151706548651381
0.7585940158728534
0.7937629936421626
0.832160166067292
0.8467993763241332
0.8639002726876825
0.8829186855055664
0.8927901315965714
0.8784514241859785
0.8408394147392961
0.7800625684756357
0.722240373115101
0.6560960600609477
0.6062116782228612
0.5824959698806753
0.5719895145183409
0.5514845076822463
0.5342644368533153
0.5176635923157331
0.5263099590041759
0.5366731925939938
0.517505854716773
0.513805580775067
0.5340072501117291
0.5459881893742032
0.5351267135314641
0.528234071916965
0.5568295392400764
0.5641205917297347
0.5534194824091985
0.5458833809667059
0.5472640498751036
0.5698334157542089
0.5538555087024509
0.5256378562699248
0.5350286008765857
0.5501811615125882
0.5465601418108853
0.5236671384862055
0.5175100186923447
0.5331545843671949
0.5224617166190388
0.5188624057255941
0.5228314048969175
0.5282112717101322
0.5281865508639226
0.5146736533837831
0.513576217569659
0.5240816023734816
0.5268328526118206
0.5269469245734553
0.5227061399656138
0.5529776176351293
0.5878708754579142
0.5757505072799157
0.5724321958477174
0.5742128432385454
0.6086200449952383
0.620081186084769
0.5915060896302508
0.588481985388265
0.6002962208934071
0.5799018057943505
0.5233768109178779
0.5049472025791768
0.5076239150809809
0.519339659701253
0.4938688265643344
0.5083673536500857
0.5068628006957223
0.5145039721715563
0.5671284229197903
0.8219814950477495
1.0
1.0
1.0
1.0
0.7482019429617102
0.3613982039239772
0.696599046661221
0.6269915360109084
0.5289673060847687
0.5334607923093049
0.5376862270450956
0.5196147494146315
0.5316827544677306
0.5460530201067115
0.5554065269928123
0.5528491768065913
0.5625494581653989
0.5751300490207902
0.5844061620533255
0.589243525663759
0.6059780615627849
0.6278355990111091
0.6476541165972336
0.6640903221264589
0.7056070997313693
0.7492463874279436
0.7838536026750165
0.814292261600413
0.8500169736062182
0.8931250725247708
0.9297664900407561
0.9197197591059979
0.88044557867666
0.8560108921992866
0.8168027314383117
0.7401769263132356
0.6661148029309272
0.6211555828114277
0.6021398500195795
0.5760325116459423
0.5483877154680417
0.5298454936160641
0.5408582155895096
0.5345213245452106
0.5175683717246601
0.5170446685187737
0.5326379813931854
0.537447244023244
0.5324826646249504
0.5408373446662761
0.543619393984113
0.5474601907487849
0.5493805594117069
0.5411244684407661
0.5550214498952488
0.5543850165831465
0.5388310416749105
0.5324275423592931
0.5372062518618309
0.5422857925242823
0.5384971149616702
0.5211865892332062
0.5229860898442881
0.532546935373411
0.5274892523238448
0.5181538223080112
0.5157028798133648
0.5227119418350477
0.5276191012634557
0.5204470580613033
0.5033898941828906
0.519004095452955
0.5342864305817285
0.5202274778138212
0.5060515879323619
0.5267907197699999
0.5661819184888678
0.5769805409139693
0.5574701952995387
0.5779751567314361
0.6159273768387163
0.6184028328126296
0.6004991846903758
0.5871745831863637
0.5821737807053295
0.550116925458765
0.5080981896169483
0.4830188642937351
0.4879088009927569
0.4949227507480732
0.4881175346358944
0.4978438535923454
0.4989064697620102
0.5037229049485242
0.5527670766842748
0.7781419665916813
1.0
1.0
1.0
1.0
1.0
0.29584602396713033
0.6138970380617467
0.6876151496027603
0.536000327393906
0.52128139395887
0.5161483560616398
0.517144944985412
0.5108094393765603
0.5265932411070258
0.5397385594647397
0.5358336086304338
0.5487649202294878
0.5715469856068041
0.5741773770070522
0.5800654458797616
0.5972090437503
0.6286973446729973
0.6479341612461208
0.6580045338786714
0.6961711772816459
0.7408535798920649
0.7831286767612787
0.8170503057093054
0.8631585389572983
0.9102493357975441
0.9310097306696866
0.9401429255334242
0.9199983483225511
0.9079862344843178
0.8686212087250373
0.7907734415703692
0.7069041881605174
0.6546628509850542
0.640419881704138
0.5881586278012305
0.5435517618657776
0.5344788189251751
0.5450168592306837
0.5315523975122551
0.5123009066939345
0.5142126274883132
0.5249537627763307
0.5366609826191449
0.5259624911858146
0.5258014123219381
0.54975925703956
0.5533827139194665
0.5394853177086687
0.5432797647462178
0.5478246088402519
0.5595366278532603
0.5454574339998298
0.533080963177543
0.5380759710520769
0.5390786738598263
0.5373005941577629
0.5330866025080105
0.5121856400455034
0.5194489943538845
0.5208291604076175
0.5108239037545118
0.5029076123629556
0.5215381121238449
0.5096104585003653
0.49552693389297203
0.4942054426204149
0.510432332705222
0.515884564958636
0.5001741315904
0.493220235869415
0.5263993840352422
0.551855304942413
0.5613380835057902
0.5501098795987401
0.5609969474861871
0.5846959240943287
0.608370434630687
0.5850459867903488
0.5864127690995549
0.5940057466251301
0.5684576131497813
0.5213208777057992
0.49860764713094186
0.4865234452940763
0.4683488807682655
0.4612007712429055
0.4722538412555565
0.4907014837132116
0.4990783813248701
0.4585151738896333
0.5010671572851276
0.7855785710430288
1.0
1.0
1.0
1.0
1.0
0.5765812583751725
0.36210697558458504
0.7189545159906657
0.5808577486998943
0.4875099513753077
0.4742035782355005
0.4839179916935671
0.4727982365879842
0.4809176987178754
0.48095341061692237
0.5105843009175964
0.5190247960377261
0.5158261541286555
0.5071864423549375
0.5252049013159221
0.5480893288074469
0.5681061511855503
0.5731412943592573
0.5827817610885796
0.6200830849884443
0.6602869766847074
0.678665975889438
0.702116635598061
0.7546351635418809
0.8103849604614044
0.8406576143589577
0.8709588721374656
0.9115842092105784
0.9352695542740799
0.9425153739303507
0.9312452436671741
0.8967385978498404
0.84598135969888
0.7680365380749216
0.6910340116884318
0.6050730532998028
0.5583083940212552
0.5225268197638411
0.48124169143339185
0.4713102206655312
0.4849036419724203
0.4782778768453258
0.44793827757803156
0.43320191774092054
0.47128050259014065
0.477569857726096
0.4623849143056494
0.4628420765691329
0.48044297565340977
0.47298312665992076
0.46843961839295967
0.47311887797604735
0.48730442003523333
0.4827367950531518
0.46570188905329013
0.45865282048267186
0.4592237619861785
0.45718255304094074
0.4486621575375954
0.44777884325775325
0.4274050436728146
0.440688664466964
0.45069284523325565
0.4301678202408851
0.42068412150766654
0.4372005299244586
0.43713092250591334
0.42036165391277364
0.4003050790127084
0.41769282641242034
0.43871172944721126
0.4195328567024257
0.42922739770063745
0.49101450295227717
0.5037033667953676
0.4828733702949207
0.4889795769841142
0.5185705638611683
0.5653648573900438
0.5546622269005097
0.5260042647449978
0.5289797166671456
0.5412568337768504
0.5019785963250045
0.43693009857629306
0.4271648536691129
0.4497267672491267
0.4574376496880942
0.44023913578173185
0.445859792390393
0.4616923478324977
0.5142019430835367
0.8480460893402888
1.0
1.0
1.0
1.0
1.0
0.3673287646241917
0.4561277170250266
0.7319610898355728
0.510700582751979
0.49067660460069407
0.49864221320839536
0.5087407637927582
0.4788689389216647
0.5015706573884084
0.5180466579251453
0.5364866753361316
0.5340025174369365
0.547643715144978
0.5588899535494639
0.5845479165531583
0.5960431709863327
0.6274740289728873
0.6580241199080773
0.6974752783222612
0.7094114469863262
0.7689975668912714
0.8202173817980121
0.8919972550536247
0.943431409036801
0.9538093178120504
0.9781378238960446
1.0
1.0
0.9689769377687998
0.9151407908809496
0.8482693131011271
0.7513651491203566
0.6795270841061494
0.6266771853404525
0.5848114230480064
0.5249199267377508
0.5115274880855043
0.48789690947680525
0.4910171325643754
0.4862671007078584
0.48240015150059046
0.4954516910939028
0.5206448069233864
0.5166202971780299
0.5084539762280371
0.5146111263452107
0.542882282988346
0.5396246168784742
0.5260862124630737
0.5134683763795248
0.5255792043345171
0.5555068344862972
0.5368044026967816
0.4942552396103843
0.5070131236820705
0.5061961959612505
0.48916958799118
0.4862911360359643
0.4936648803433442
0.4906822162921281
0.48966627838077076
0.4644755809658469
0.46562754412205737
0.4901893565927338
0.5016516132989336
0.4807008720522939
0.4599480952658729
0.46325066257493236
0.47980587419059384
0.46469159719105235
0.4608120735171174
0.47409871714399765
0.4987272600160947
0.5208228803519488
0.5378876981288967
0.5435404306403423
0.5609329431850651
0.553243794779555
0.5846622773483369
0.5950437771830334
0.5862329278199581
0.5530130734571423
0.5434531738066302
0.5052945569659812
0.4859542507585065
0.4386446404596983
0.4289075551968069
0.4257102020646018
0.45933001256633643
0.437358884666209
0.41777246121600403
0.4773683891869894
0.8872776668044862
1.0
1.0
1.0
1.0
0.5893553317535248
0.24313126819335498
0.7420598713961125
0.5751337220420443
0.48417828429496235
0.4608234158069422
0.46721729516926336
0.46906806051530625
0.49936866711568995
0.48795929254592946
0.5050471860939559
0.5030178571994706
0.5325449258474085
0.5137149887172436
0.546835034130582
0.5682815736152047
0.6324015329083823
0.6590438132081892
0.664065235435339
0.707534411942263
0.7659597252818333
0.8264073065921143
0.8938894239083212
0.948061271810605
0.9708336427424523
0.9929957885811384
0.9957328826870203
1.0
0.9852570158442152
0.8960792971536291
0.798514133232202
0.7160638287471649
0.6498111005187464
0.6118474096120108
0.542728629627236
0.4909124641368921
0.48453489989455567
0.4880751826961804
0.46465515694285997
0.4724328540464251
0.4783208703455166
0.4809476722503684
0.49250589948953855
