MLII
0.5
0.36510184810468094
0.5
0.36510184810468094
0.5
0.32659124459552613
0.5674490759476595
0.531497927365222
0.4325509240523405
0.14858755389293035
0.3392661009679177
0.41920677319234245
0.5989692908075489
0.43681930302861105
0.5
0.5577001291563106
0.5674490759476595
0.39403712986241846
0.47615234079479374
0.5170572521851984
0.5
0.34738403692799846
0.40853220541931135
0.5565634231751483
0.6456568274953058
0.49644181718616753
0.3838676560626618
0.4774064329770368
0.506624011855973
0.4094289352773141
0.4628442362694578
0.5391983029539904
0.7344159440454232
0.5706302386740812
0.4698201798113352
0.5872533876317231
0.7221423501327637
0.6509412826766968
0.5347154840991094
0.783184710930513
1.0
1.0
1.0
1.0
1.0
1.0
1.0
1.0
1.0
0.6956150407397864
0.5375403330074388
0.3515768229494721
0.41371764320649784
0.43381405226696207
0.36376874022246464
0.29442027095284434
0.3995698416101048
0.48595379432588415
0.4678865061205323
0.3599210008182047
0.9003080442860594
1.0
1.0
1.0
1.0
0.0
0.0
0.0
0.0
0.45801044694053605
0.7902081877897666
0.6688046632639406
0.6599988660413046
0.8145282711666365
0.815495401771171
0.804500471327937
0.8013846956463485
0.8830096078390964
0.9156692530721899
0.8883631323406801
0.8551099966539073
0.9182085013180414
0.9820082663932826
0.9762074176387536
0.9544824507675566
0.9900971132590219
1.0
1.0
1.0
1.0
1.0
1.0
1.0
1.0
1.0
1.0
1.0
1.0
1.0
1.0
1.0
1.0
1.0
1.0
1.0
0.8294406183572477
0.7127109584117134
0.6589206110113826
0.5959009417818615
0.5647996006686113
0.5598273052320202
0.5544102492275268
0.533882984010627
0.5003167173681333
0.5045922881364097
0.5182085544682294
0.5172156247859238
0.5027991796811995
0.5110549855087901
0.5362936594286559
0.5084313703234393
0.4942726018505804
0.5120320638128162
0.548377584549563
0.549541396247623
0.5079325462217883
0.46896450116252575
0.48087300418662215
0.5
0.4711231033431507
0.4416629058942737
0.4588859861960809
0.4709172750509077
0.4312108896551682
0.40109555263120333
0.4331644205925258
0.44945665584741723
0.3998698028966014
0.35941427025863865
0.3944902564479483
0.4587546320367588
0.44655638667803566
0.41678671130158407
0.4136145322981742
0.44880280252463944
0.43261813645855385
0.41438440689141115
0.39865401398732464
0.45736843514627185
0.4403488437843038
0.4135214920899067
0.4032706354181738
0.43829055382860693
0.4426899123816187
0.42701707510185993
0.3700852197602955
0.4330181927504806
0.463694622365343
0.45525722663816437
0.42757481707212025
0.45274570605196535
0.47180486667890664
0.4534941459980444
0.4122483590871823
0.4395313871384399
0.48190676731459164
0.43880433105727346
0.38620104807408306
0.42521120297276116
0.47470361032401936
0.4713098039659783
0.44405122944588926
0.4567838020350397
0.4797193969796888
0.48593883503750546
0.4666434763949714
0.4628898422849147
0.5002491067093771
0.5262498513464459
0.4640967506001342
0.4945451685226089
0.6222779589750718
0.7168005077975141
0.6835171756741084
0.6919707799006186
0.7834701773835983
0.8546896089761098
0.7643161888880542
0.6739429590978869
0.6532695776686703
0.5979308047931022
0.49244647161504396
0.430917705560182
0.4325005647693768
0.46279675439392964
0.4460516798391082
0.4029475619615413
0.39674001641487394
0.431619227684165
0.43420920341010893
0.42506675066318245
0.45012912494470186
0.5875936386918388
0.9668351893196583
1.0
1.0
1.0
0.0
0.0
0.0
0.0
0.3652961100714215
0.5567117822352146
0.5424755841884773
0.5429426839616067
0.6376554643035389
0.6425422023205829
0.6177761235153648
0.6315977086343947
0.6884539971178585
0.7048120028899326
0.6766984834738061
0.6805289396151621
0.7266583907313885
0.7458770228935571
0.7343518457494573
0.7317080149636677
0.7724042277519099
0.7974553997583372
0.8014109936192566
0.8167255194653746
0.9087653314993812
0.9593136352377837
0.9660560347760679
0.9989795217580326
1.0
1.0
1.0
1.0
1.0
1.0
1.0
1.0
1.0
1.0
1.0
1.0
1.0
0.9482783812748309
0.8489120604670276
0.7204160255311844
0.6239209318911547
0.5939693213366242
0.5593483299253642
0.4993043501948392
0.4820654980557667
0.49167009418402474
0.4997510082837163
0.4828544145876079
0.46900988915017827
0.49999569798872906
0.5223588053095843
0.5240780355425085
0.4903709493789591
0.5011980147492544
0.5380105737469385
0.5394980823591102
0.5009979244103981
0.47569209287093683
0.4946860737925351
0.49719525252420044
0.45632651108066324
0.4288006833571062
0.45258963222452114
0.4583222593588968
0.40524500251328854
0.3873011634841942
0.3985813940493352
0.41239392032806965
0.3956499619845486
0.33689130369639564
0.3479058084879708
0.397289280059718
0.36940745826366106
0.3400298822530175
0.3634882769547362
0.35962140543552146
0.3540729201434486
0.32381533096197546
0.31990199203312775
0.3574896461102801
0.33807192128175173
0.31325483871628557
0.31058014126872846
0.3494250284928949
0.35612680268719216
0.3368331106093888
0.3143397629659899
0.34710165953056
0.35430266412504974
0.3297864770911597
0.31335844755083075
0.3536583356426845
0.3784519829182729
0.36151043280988454
0.32377529353712614
0.3475692522506796
0.3723239692184285
0.3771101774963516
0.35482949823652066
0.3519062764825869
0.38007922072155453
0.37830715080337624
0.34845116410459165
0.37331115289440614
0.3951262069925029
0.38687903154415265
0.3830016142598261
0.3795108176957612
0.4112449786057814
0.42625027597222054
0.41362495747436423
0.4323639861357515
0.4813623121537871
0.48527055978193545
0.505701063822394
0.5344617084714103
0.5764216906809144
0.6063345719204847
0.5565146996820368
0.5038228945265112
0.5069365341436137
0.46750475977541106
0.4081101688690042
0.3904693851587021
0.3737262172080129
0.39480005889046954
0.3741714267590348
0.3593856382559729
0.3577643529489158
0.39314428073474705
0.40320798709119676
0.3894069916267902
0.4298954878769443
0.6561019472375793
0.9846702755197508
1.0
0.5512733543723072
0.0
0.0
0.0
0.06818880227217843
0.2694941416036444
0.42791794437274316
0.4267908384104315
0.4282950336993981
0.452171547205025
0.49438817116574507
0.48391719981435655
0.48969965848027314
0.5043062718594843
0.5433637648146771
0.5225071913684659
0.5165129055135396
0.5371853315606676
0.5665049345911408
0.54934829472388
0.5515077212822477
0.5845034699667552
0.6151383608002321
0.6173108399772836
0.6220904668157854
0.6520324333346456
0.7052008706508792
0.7469648265225549
0.7642458703559594
0.8101920028100821
0.8753741021527779
0.9222474794681279
0.9401855184439964
0.9699147905852552
1.0
1.0
1.0
1.0
1.0
1.0
0.922073830601402
0.8131954970546393
0.7396660686656411
0.6869312473664958
0.6236670239047069
0.5678478310260211
0.5313150464182005
0.5324018315074522
0.5006104820284645
0.4762000867990473
0.4817317040168672
0.49999367088222907
0.4908847992230966
0.4594698496277945
0.4738671000931918
0.5038694592591745
0.5192284688591291
0.5001635457146248
0.4963437052462356
0.5117104188162727
0.5221808606292897
0.511952140708358
0.4995465961921276
0.5116851631366115
0.5180749909586571
0.4956180974482013
0.4743155042429499
0.48014412546598856
0.5032346125101848
0.4791498147008923
0.44955857414291617
0.45971080005784914
0.4720351968520541
0.46402029229396186
0.4451828698649873
0.44446677941389073
0.4582888437208178
0.4506951677419592
0.4354587209908701
0.4372026168072744
0.4505190709903289
0.4450572534708567
0.424935239681919
0.4191355347618617
0.45348253842169034
0.4473777692142956
0.43950250522988954
0.42770379936974023
0.4410639818541625
0.44349609697401526
0.43919774425169555
0.42049974239272175
0.433373337567177
0.45609779337236506
0.44726947166380854
0.4341599419023202
0.44294428963215626
0.46822531669745554
0.453101266690318
0.4326945776026265
0.44077190962819685
0.46416259002780247
0.48195488582466195
0.4620170062602066
0.4459722216003006
0.4526362385172763
0.4691936224520884
0.460866361996754
0.45200392680468504
0.47592166724102813
0.4865008148594801
0.47109106758129904
0.4564888612954786
0.4860556216424919
0.5015452591658358
0.5068540723551558
0.5335158432782129
0.5877105093179709
0.6201894055832662
0.6466400014960787
0.6607305753419676
0.674904001534831
0.6402859466664088
0.6179369205564522
0.576830845696083
0.5218506973040233
0.4892727849323788
0.4977085118342218
0.4515333067741928
0.439911712533565
0.45403433916005975
0.4609308689521655
0.4510605341261441
0.4419086954543775
0.4758548876124551
0.491494480056396
0.4932064257742438
0.6380851797722636
1.0
1.0
1.0
0.6164429551477124
0.0
0.0
0.10719075201521018
0.3526498452450599
0.526756036891147
0.5910232685024033
0.5731766134803302
0.5750061605195966
0.6103280950213553
0.6281612071694049
0.6490348793182205
0.6273065913716216
0.6210818559305272
0.6609790842395485
0.696423436323444
0.6629173649509232
0.6683679565938324
0.6991587672824228
0.7275945140968767
0.719554743788158
0.7196985889551815
0.7632518401077197
0.7995123025397155
0.7916335024631808
0.8191015645510762
0.869579127451377
0.9224373829651349
0.9567156671095184
0.9850821705866917
1.0
1.0
1.0
1.0
1.0
1.0
1.0
1.0
1.0
1.0
1.0
1.0
0.9356443355909615
0.869134491308509
0.8127431865163747
0.7153736425627424
0.6579995366506468
0.6423118733422591
0.6233299510296236
0.6029105645371515
0.5716778863028543
0.5800191160368308
0.5878124496329346
0.5756084803460164
0.5499485838490396
0.5635185947735682
0.5950330472499445
0.6032790769349576
0.5714183421393239
0.5602087915488067
0.6057369090508183
0.6062099687158182
0.5751647998869351
0.5659262050354466
0.5822126410167012
0.5696196382198141
0.5509153522265393
0.5365814780857012
0.5517076947474682
0.5437569778376724
0.5153179604281237
0.5034610415331813
0.5036991447862225
0.5167134277507747
0.5075757502725524
0.4892224391092882
0.4899321362951244
0.5011639653531058
0.49543267584979384
0.4882436432204928
0.48739890656975754
0.4984272947674688
0.4843179529117734
0.46768839934696943
0.47247539527688576
0.48744276886998633
0.4811480805969757
0.4712563178769417
0.4580991517950054
0.46537679431121726
0.4729638674126897
0.4638989589465393
0.45711287466656064
0.47254354922447134
0.47465595508962977
0.45491146072331734
0.4446808581524505
0.4748838308102508
0.4933648914942048
0.4751344841694058
0.45522795960619894
0.46917435699557214
0.48791955941169807
0.48275556357797367
0.44517393879848416
0.4597720736922083
0.47266748246400264
0.4799609865194351
0.4663795880214251
0.47966830066243815
0.49058357989871026
0.4995359473743763
0.4690386109489544
0.45750889943071504
0.4958458463402029
0.517996920654017
0.4913676966200791
0.4750318963793946
0.49279965009371623
0.5117733817550165
0.5063952793157487
0.5153015626485902
0.5636902329771412
0.5994813802074039
0.5966562728769382
0.6163527018500531
0.6743430332447248
0.7256833521151439
0.69207482121901
0.6086328100773244
0.5980105981609223
0.5971796949803706
0.5296503136091479
0.4795565667371656
0.47926651382873775
0.4803023592120804
0.44915776155960785
0.4103591291471348
0.4187347227385974
0.45521727824496094
0.45750104342788633
0.43321767143104023
0.4372870140553502
0.5203335520912651
0.7456216504536727
1.0
1.0
0.9892874109151755
0.16217085066448983
0.0
0.0
0.14447733375291935
0.3917373698687342
0.5284806709449701
0.5174930931174838
0.5039230837053635
0.5674490759476595
0.578113735884198
0.5730193684968273
0.5695253149729302
0.5928526959935422
0.6019179192337081
0.5854850145844221
0.6053046971642638
0.6384806972950468
0.6494783751182445
0.6329811110569445
0.6174773099634238
0.6619502936317324
0.6844312652406843
0.6925016861861373
0.6821062116155587
0.7233490625327529
0.77751193623585
0.7964581275784164
0.8168685199629577
0.867217020942739
0.9329657019923973
0.9911135398178625
1.0
1.0
1.0
1.0
1.0
1.0
1.0
1.0
1.0
0.9270836821843871
0.8389338101547006
0.751211769748955
0.6613374951432555
0.5958118541613038
0.5789030648215019
0.5581776532034075
0.5171655082957642
0.5027107335158506
0.5046289230701964
0.5172575932702361
0.5108804610243667
0.49098302075188904
0.49346459181690505
0.5075770354456943
0.4825221872977541
0.4877462118052641
0.4812201652512165
0.5106852817516129
0.5028022691416101
0.48635805208675736
0.47190696162661033
0.5172240234418144
0.5012196556142617
0.47204488798966227
0.4511983064823594
0.4588137252742957
0.45838956712549306
0.42164388843706907
0.4094720476174635
0.4282312249198054
0.4443419529603167
0.3941014297973644
0.39211535700487243
0.4120644713963112
0.4316049083740385
0.4079883139135683
0.37909041757342626
0.39214492005731805
0.41109084872422946
0.421140062639212
0.38828618055726655
0.381588274998796
0.4110851426016621
0.39786412608370314
0.37079387839450345
0.38413595431598735
0.3966833237803845
0.379963830658501
0.36007434299670826
0.3514330394265037
0.3939686358352147
0.4004585160728965
0.3772166340777412
0.37171510019947734
0.3818957297997926
0.39129468852373783
0.37413539492549136
0.36654394873130486
0.37460244168396345
0.407809285222937
0.38674944533234135
0.3599141271604539
0.3872128986386361
0.4028120811244559
0.39987642564286247
0.38759178804795036
0.39025065647419466
0.39727041148120906
0.4114289097761408
0.4004886118035495
0.3899579186782921
0.4101205293193978
0.420551261086983
0.39952861819609664
0.3988919831910704
0.432579976945212
0.45115649913967015
0.4807748553498897
0.47200942524067646
0.49472613750950567
0.5554091483580539
0.5630756895701494
0.5511114543095341
0.5346880684789422
0.5410427272294174
0.4895693271277558
0.4115163211947504
0.3852010905618176
0.407860141789451
0.3947950656140045
0.3718951986000581
0.35097088051091807
0.3822943540486884
0.393963607787806
0.3886983036418766
0.37677070181647065
0.4122403191757137
0.4229579945582298
0.5205552782575565
0.7756739969275156
1.0
1.0
0.37901952423003016
0.0
0.0
0.0
0.1579549072730683
0.32788020269923474
0.4482046958088196
0.4750354796970019
0.47006398153285645
0.4767559191061702
0.5021404613925868
0.5318745037669267
0.5260190246976943
0.5244514746506005
0.5326636907533319
0.573595780592006
0.5765972137503578
0.5468495416391046
0.5658212716263152
0.5956814311118375
0.6086037195070846
0.6208661504021336
0.6233373541622095
0.6710825076905096
0.6892110851731434
0.700139479209749
0.7318705097627201
0.7781676953978492
0.8348352033544326
0.8755748566752267
0.8867624657494343
0.9492226335791987
0.9776957381118884
0.996549189032838
1.0
1.0
1.0
1.0
1.0
0.9783985828786925
0.95516534506604
0.8681370059461418
0.7796403882189914
0.7158278290705439
0.6691345372436982
0.6095127046254103
0.557333507255329
0.5349256669650571
0.5263496778153463
0.5125002706648407
0.4875765862377447
0.48999622853475994
0.5042194242331479
0.5090039774962456
0.49889324683102815
0.48570036402763817
0.5015193523112991
0.5289550479074309
0.5103051459023004
0.4941706274476377
0.5034749901086634
0.5190570709419637
0.5032279632842466
0.49024828910655016
0.4891854483093464
0.5138352660118566
0.49790181548227447
0.46768318793647035
0.44482948749811146
0.47854995515631654
0.4840698124748659
0.4515497041551826
0.4388800962291947
0.45952311619846514
0.465466304678948
0.4404811279522689
0.42650520177911855
0.4459343144849539
0.45406054184941835
0.4259869252287226
0.4168798977015908
0.4271211502858603
0.43728269940277753
0.4373216181978588
0.42080251092845955
0.41856018982796916
0.43846879795959814
0.4233201584756833
0.41253454974001036
0.42114527974997795
0.4434170368971503
0.4376777511081721
0.4279433991638156
0.4204918088604077
0.45170312468346446
0.44539792882258106
0.4267547176632043
0.41041995344644294
0.4299740605946291
0.43602188792663715
0.4253313813963008
0.4234050870562444
0.43745853944110885
0.44384150247291415
0.4222607731907641
0.4197414136683573
0.4406781751618832
0.4687576813518798
0.4477638960722613
0.43430221000025115
0.43147139474682045
0.44599805558517414
0.4522679364514223
0.4349656880199233
0.4402752937904359
0.4598949268498818
0.45672666245968135
0.44198476654227187
0.43467892790837964
0.47223251046453385
0.4684508286276814
0.45252983099714267
0.4490343289989208
0.49298177182803304
0.5296823918719734
0.5568034372877312
0.5368744676725932
0.582867171631194
0.6260636448456172
0.6170739183687406
0.5857502412359171
0.570939406325939
0.5634147054122751
0.5273178648013154
0.46395966786829046
0.44125245403046354
0.4560080949110475
0.4570542402438377
0.4121978405044951
0.40682204112438597
0.42483574404322244
0.446150333359404
0.4325091453216919
0.45299590951285557
0.4706137016474421
0.55363229523108
0.7860279007080334
1.0
1.0
0.5818774258085255
0.0
0.0
0.12314749821730823
0.35420090083429445
0.49064230505503936
0.4987816606344686
0.5013796377626376
0.5292682553478388
0.5422404120959352
0.5239738007604345
0.5476998887762599
0.5678454556587457
0.5654360196634973
0.5632203116989212
0.5702010671863397
0.5973106766800549
0.6018173464175345
0.6076094125945106
0.613461877241919
0.6480072223651963
0.6553034861567033
0.6575263849634521
0.6788992911018601
0.7202996259976484
0.7611812891287331
0.781705041496244
0.8025410732888997
0.8762638260965234
0.9156958544633825
0.9506057444161863
0.9883556769753051
1.0
1.0
1.0
1.0
1.0
1.0
1.0
1.0
0.9501527714098629
0.8974227642422641
0.8094899089971144
0.710008139762009
0.6451312690896873
0.6117360488516548
0.5830777856595756
0.5331720772760542
0.5072683210866707
0.5232034876008725
0.5208769458191804
0.5000590136416115
0.4947802606679102
0.514903698442323
0.5197662861738865
0.5031379964849392
0.49084865267700295
0.5082552773987612
0.5335238640475881
0.532307069460402
0.5113943936024118
0.5225273091728393
0.5424889462620718
0.5264492183458405
0.503776114395772
0.4986974684333205
0.5169235767452187
0.5128419815637163
0.47400086887314596
0.4544667821914885
0.4870527874230368
0.4809013774334356
0.447827614491265
0.4441983041937224
0.4596971907911353
0.46945439079968904
0.45102090097002073
0.44706883697329614
0.4475998884144124
0.4728104860267913
0.45411482444751866
0.43042754490363366
0.45878083154656196
0.48025044534359546
0.4669811257569333
0.4505109293757923
0.455803768310547
0.46318788912869424
0.46038014135808025
0.45107918765497007
0.44533579672430257
0.46290202755421356
0.464707211437226
0.44225627347477464
0.44910997541955605
0.46519073639474195
0.4697618368930184
0.4545432292156469
0.44357955177838304
0.46291807605967505
0.48034392776537616
0.4701514562892606
0.4422327908894908
0.47497837571085955
0.4883756650326944
0.4715993120046996
0.45968779016842787
0.478289859396354
0.4883992098896942
0.4777998671135408
0.4580112242125617
0.46293525390716156
0.4935638886966912
0.4758597155693541
0.4692591455990371
0.4638482341857143
0.4990256480025739
0.4892429841583101
0.48030799484495723
0.4680952508929077
0.49580487189667916
0.4937286971614362
0.4847402233102998
0.5060917361831094
0.5689196203388883
0.59650983212284
0.5904293553057441
0.6325529082578054
0.6578681943739458
0.6613259607472701
0.6224613537338411
0.570526527449088
0.5519554685517747
0.5128395725416345
0.4938374573758654
0.4483387701598138
0.46105106427622705
0.44802316563108613
0.4448150437467856
0.4277862410101541
0.4293233039521371
0.46140036819514546
0.49192586874871835
0.46050742640699116
0.49957536300532085
0.7016907867502529
1.0
1.0
0.8130718532991354
0.0
0.0
0.0
0.22029929322202202
0.43757438194991594
0.5173843096692099
0.4956502749989749
0.4954931637823406
0.5430651968104463
0.5772434854520588
0.5741566202084486
0.575521413690009
0.5819591062426819
0.5994207655385488
0.6145387529264584
0.6063797748854067
0.608066366369227
0.6367228243517623
0.6402048714341921
0.6346377246715856
0.6459500373243301
0.6942800238780708
0.7308672662684554
0.7287636912355926
0.7566103996483283
0.8177055493030816
0.8728499557158521
0.9021902517672696
0.9442990801836231
1.0
1.0
1.0
1.0
1.0
1.0
1.0
1.0
1.0
1.0
1.0
0.9352415335363137
0.8398373627370095
0.7615393995718633
0.7017234124557502
0.6340832704538267
0.5875680600947963
0.5832981846487875
0.56234148020084
0.5349506997656752
0.5209494709348511
0.5204660907072033
0.5380253430057184
0.5236175945307167
0.5143492786406961
0.5300803282570379
0.5478003930536531
0.5326554841310988
0.5351506746565228
0.551563148237598
0.5650097267276395
0.5431212203441882
0.5245909167437948
0.540082085493607
0.5581544850573856
0.5435889791397143
0.5055904930237999
0.500908331576076
0.5041220758145234
0.5045957635815908
0.4801270336853012
0.46926155582031115
0.48962955365472444
0.49276928789331603
0.46111124106364043
0.4569005067042692
0.48747793648126675
0.5056446754064319
0.4745561608759809
0.42903836728668965
0.44874623153429916
0.46446752166627975
0.4592764688060377
0.4327741867793084
0.462805300440318
0.4775733788842024
0.46118282366893854
0.4428177301693646
0.45608387766567143
0.4769927887493992
0.4540500100516778
0.4377020517398214
0.4400548874246174
0.4536021804899197
0.4693587431849462
0.4458325826031041
0.4453756480870297
0.47141278370349465
0.46715574568519636
0.44599703124560514
0.44582267795679753
0.4714872725358318
0.49891648578886916
0.4627719512334666
0.44092947106706165
0.45146398821891154
0.4626062126633723
0.4677841050021835
0.44643465681006644
0.45745175191465715
0.48764886557688997
0.47983898981447093
0.4623996326955667
0.4630459457082006
0.4923970531690517
0.4878402088774482
0.45776344399619073
0.4671425700526566
0.49188092859886046
0.4971183882480698
0.49161091782395633
0.495767165763868
0.5484839807461208
0.5857666091938423
0.5779433654964508
0.606811520699759
0.6806978354648726
0.6998157643866104
0.6776604956434155
0.6159919815820889
0.6144325774026955
0.5753741294878717
0.5257721805225491
0.49633097965093703
0.49020714309584906
0.5161350390876667
0.4901146489884535
0.45829711716567284
0.47972597335791445
0.5054550108985573
0.5071514557818074
0.4780145250064548
0.49580655172586086
0.5331381785254339
0.6544262056983657
0.934956457451533
1.0
1.0
0.7192922121951124
0.0
0.0
0.033639081310136466
0.28455300289138846
0.47041854260479765
0.5761655287410288
0.5883071059944027
0.6161437934453768
0.6429885407095076
0.6264418654329675
0.6358220686401754
0.6722202873219135
0.6806532974852727
0.6644958285677905
0.6817806288974897
0.7211340624636869
0.7131369335584363
0.703971897943903
0.7227594615138082
0.7633908768043958
0.7910004194472267
0.7896607257189199
0.8106638468202991
0.8481773131106956
0.8836501039067421
0.908789986248325
0.9384646692995895
1.0
1.0
1.0
1.0
1.0
1.0
1.0
1.0
1.0
1.0
1.0
1.0
0.98439799038749
0.9270654646644132
0.8559737683948789
0.7714903073679592
0.7173401519045279
0.6974727199521179
0.6767046489644566
0.6190559243584014
0.5985728716127897
0.6207611918781504
0.6227807260913861
0.5938710068739289
0.5733053761947662
0.5970368579339773
0.6166476508855104
0.6024158209290547
0.5903420660008033
0.5999224249050902
0.614471551996713
0.6134203039891118
0.5935355879525073
0.6115736468531248
0.6265785589983994
0.621156482610043
0.5837707954856186
0.5750179676874975
0.5940319001843354
0.5888624783683462
0.5601988317901301
0.5303939236651357
0.5604566092862897
0.5533759673880094
0.5449765867054772
0.5305662249484074
0.5432785711382176
0.5414727260058712
0.5154938111843756
0.4977646784716875
0.5067523492950003
0.5468732664686411
0.5228564645693635
0.4959912131361657
0.5128292232905781
0.5314702675112826
0.5181329414301825
0.48947473893487786
0.5015395623113273
0.5269639166220872
0.5260922741555712
0.508322147270298
0.5146112741576331
0.5202381674892363
0.5252637684410113
0.505855504710427
0.47926055363958353
0.5144287620219756
0.5257752581657889
0.511776848626815
0.48725159816895064
0.5174342787280233
0.5297478435703009
0.5094698197430138
0.4891836595309377
0.5094904281818569
0.5397991324917447
0.5234501904190658
0.5143454005583552
0.5208539911734892
0.5341284503196139
0.5383876623759416
0.5091321967389557
0.5173997033253588
0.539409554404935
0.5329974960718094
0.5055088016824769
0.5185569869590113
0.5480541877690305
0.5471828126711047
0.5053266576295279
0.5125264136748255
0.5530650502495098
0.5535716841063064
0.5444934149883098
0.5664602485914714
0.6108665264956834
0.6450577902427849
0.6614969842838558
0.6921244552900674
0.7306170029692948
0.7335562163759339
0.6909673529199105
0.6418723452666872
0.6253866175426037
0.5948382200210903
0.562486870510347
0.5097012208739454
0.5301728404443321
0.5298636476137133
0.508680704635443
0.49326411950345594
0.496547168096546
0.5254895075903229
0.5186479157734778
0.5266014941179036
0.5442729068989645
0.6674631493421029
0.95277220727308
1.0
1.0
0.6375240147254139
0.0
0.0
0.1438708001979189
0.37461529962673723
0.5579208001992286
0.5984592602144181
0.5650562349562736
0.6015404023663019
0.6470964765330214
0.6403744491976798
0.630887606265118
0.6481205899190423
0.6865156147229894
0.6855278279177899
0.6748830151863794
0.6911329443905114
0.724443176744902
0.7342440445585112
0.7066297473454304
0.7099968443246425
0.7574790776022636
0.7843834540615948
0.7999208767045105
0.8194537471164063
0.8703767448742223
0.91044143071808
0.9371107688253038
0.9677025440410162
1.0
1.0
1.0
1.0
1.0
1.0
1.0
1.0
1.0
1.0
1.0
0.9030238699024953
0.8255539593010981
0.7715608254959452
0.7068591582321291
0.6471315604391705
0.6088307888542666
0.6099790841569768
0.6117811250211346
0.5844973801157727
0.5734965766510449
0.5865413441153497
0.5905018386121004
0.5696863370734823
0.5685695013479881
0.584615416472206
0.6006836605337462
0.5877840908472942
0.5746762295425737
0.5821249421933852
0.612414618745652
0.5920105585087945
0.57611123980408
0.5643219800844692
0.5806018278094033
0.570263327739059
0.5345068191317998
0.5298098345035493
0.5418680620711169
0.5306420249096713
0.5031034025925591
0.5152839047453996
0.5168469489197551
0.5263704906499529
0.4968659884861961
0.4818018615604333
0.4987334981912106
0.5144661342394706
0.491312817317661
0.46920756410747744
0.480737314645586
0.4979652076376519
0.48593499345350083
0.4492340400974224
0.46606867677933234
0.4835840949102348
0.47496140620826965
0.45848687283076206
0.4637909767897111
0.48351986096743865
0.46944229437689666
0.4475247293625982
0.45058346793047266
0.4667075268376625
0.47319006475192066
0.4634803386033638
0.4502833802398428
0.4631791111519815
0.47979854203188765
0.45237679041449363
0.453608302970292
0.47149618929031745
0.4841504562800763
0.4584925605561968
0.4484685192654251
0.45894336552313747
0.46457505930149773
0.47480971795860266
0.4414961747208392
0.4555464494567648
0.49062892326400276
0.46825038139874514
0.45904251398607193
0.44285359146504283
0.48185214727556
0.4785776356657022
0.45878532861368476
0.4549847002235407
0.4812060077269781
0.4852602792966474
0.4483951627713757
0.46293781640456794
0.5217280277743963
0.5602640173042017
0.5615399042916114
0.5741734680817883
0.6414998321829048
0.655612726719154
0.6183210034289661
0.5650105519241776
0.5671178204033296
0.5464339821736094
0.47875275445891924
0.44081553446784827
0.4497376457777088
0.4582508785134133
0.4352692395275592
0.4070315535225947
0.420113046189717
0.4271020791462374
0.4402829063438725
0.42856456381638264
0.4466270863689871
0.49028468915892526
0.6524299617739423
0.9444358694936259
1.0
0.989128875632263
0.2802095977897935
0.0
0.0
0.007011430748067582
0.21695412067519104
0.40177293333478437
0.4517571254628172
0.4665611952016745
0.4920978081224997
0.5079046768783217
0.5035933246278791
0.5218790359043205
0.5586250928354987
0.5393677012288804
0.5353112965886972
0.5472333886683283
0.5715087588398309
0.5856198457983274
0.5818710306702524
0.6007263873150858
0.6089224549307242
0.6410396287359654
0.640191905232469
0.6620475469747962
0.71267492743817
0.7520521268822374
0.7720298974358316
0.8067973826051553
0.855412114483574
0.9220388267281461
0.964362841648267
1.0
1.0
1.0
1.0
1.0
1.0
1.0
1.0
0.976445108484467
0.8690557488467835
0.8047021617457508
0.7295983857485635
0.6348547721687834
0.5665875192883661
0.55882788120982
0.5365412597945782
0.5025255895486247
0.49259980639439016
0.5057114133750441
0.5020497968417656
0.47661099692883085
0.4544687216869484
0.47272275145851567
0.4980558103541113
0.48901450774081595
0.47687008394571384
0.4938827576259698
0.5064660765033266
0.5012468465913117
0.4898280043877862
0.4962068518292392
0.4931541951948744
0.4723187749651457
0.4611270199017766
0.4585363063278816
0.4727311721506604
0.4533566043474484
0.43475366748825073
0.43451646240993674
0.44498439664772693
0.4441140829871878
0.43287227571274567
0.4075246714706289
0.4143373332086154
0.4367384348052319
0.4139653149340695
0.4179115453157792
0.4198773732267182
0.4153947149136313
0.4053017643132194
0.3946070917511481
0.4171613288857907
0.45233973583362436
0.4312789895704909
0.41063617032345345
0.40955460272078675
0.4376301584383803
0.42026111365358226
0.42183589426150087
0.41922816964652815
0.4410049921454043
0.4323076839757392
0.41728237344937213
0.42542424680723495
0.4546222592300114
0.45665638016087645
0.43711927470330486
0.4233350996984072
0.4446564968302657
0.45756128125064494
0.4378325158804291
0.43239931294582795
0.44401175273940774
0.46107234918900125
0.4411888930052979
0.43193300186370404
0.45199466323725684
0.4746275571859158
0.45196336193359876
0.4357047006401945
0.4420687231259534
0.47239608209849243
0.4787753061305266
0.4543851954345336
0.45247230711578396
0.4834559366348577
0.4846474941268041
0.4824278756924859
0.5001150219045274
0.5526597354931438
0.5712198363486862
0.5738845010732525
0.6111111378034988
0.6822923325474527
0.6910292843652966
0.635680875375225
0.5916110727923181
0.5784267294543242
0.5422993739688484
0.5034964974052974
0.4792955555972509
0.4751165239837126
0.48719210516997846
0.44964841155695334
0.43106825524439263
0.44606553215983347
0.4943063060103728
0.47369938646184
0.47604708384969563
0.4761732995337503
0.5931771029991062
0.852555936258862
1.0
1.0
0.791629864912889
0.0026240269375965575
0.0
0.013248405289312615
0.2860253417336548
0.4651904789100124
0.542902515071609
0.516454976931806
0.5603449258278498
0.5891947517831724
0.5935470932015349
0.5863323126397514
0.5974820783847784
0.6376488305464312
0.6345171354841556
0.6215973634486954
0.6379260727084336
0.6697642685750298
0.6810834746987771
0.6632693587065881
0.6950407795988814
0.7314240387665976
0.7406087738350505
0.7399105586555844
0.7763689798477467
0.8519527619491492
0.8733754274881343
0.9076693716145542
0.9407490083218057
1.0
1.0
1.0
1.0
1.0
1.0
1.0
1.0
1.0
1.0
1.0
0.9885430661025971
0.9013358419464723
0.8358299612732288
0.7551479719865677
0.6706122442206214
0.6171251485081043
0.6129088049222382
0.5880352043760205
0.5466078434095148
0.5295854949494595
0.5567348421097471
0.5448816679950286
0.5296965570459942
0.5250093009795187
0.5460842081037598
0.5628880246272571
0.5559168032941142
0.5351620871667851
0.5617936055915604
0.5803275630532285
0.5647609424110521
0.5519352871418262
0.5824869255326844
0.5898373682968252
0.5720947837580647
0.5428417092014971
0.541847738815433
0.5672544700342359
0.5454078346398183
0.5134923742611819
0.5061742349695807
0.5291112453533711
0.5241647955314491
0.5009228752662108
0.49224730425056196
0.5149681704038318
0.5108428411909246
0.48272321365284787
0.4717104776654203
0.49146996986340197
0.4955083884157244
0.4889933149013025
0.4609133134765454
0.4735418464414335
0.493349282450512
0.48595766939956786
0.4612702250502655
0.48024838019677274
0.4902817496553754
0.48286878336471695
0.4591446061303883
0.4768415503163469
0.4866635854001752
0.4819223502268593
0.46741487880207133
0.4598021093037946
0.49287107995075113
0.5000423785756157
0.48702667015173207
0.48135418925173334
0.49375984001335527
0.4825572169160977
0.47063177666654854
0.4744888057091674
0.508920774205774
0.5022768176270991
0.4909416849010726
0.49718009670879865
0.49637960671723647
0.5189502599101878
0.5072308405137707
0.4904004474131482
0.5023875046562185
0.5034106280184051
0.49342518116220474
0.48916081703538133
0.4822163091196896
0.5105285435946192
0.5034074455464868
0.48587996656770105
0.4831143771900144
0.5302459286620359
0.531863711015655
0.5219433062989941
0.49662233225962077
0.547802485512721
0.5699193348756908
0.605462532232781
0.6160285403310032
0.6490506235712254
0.7130649985386401
0.717567255115952
0.6778585357809919
0.6643516725946874
0.65753749905958
0.6217566134011607
0.5369961364937434
0.5180404628119252
0.5359286726083484
0.5033610005910031
0.4917147268815113
0.4864450418871716
0.4987417481343964
0.5046668231637168
0.4651100609560874
0.4623392693944858
0.4971230101133396
0.518252109541214
0.5250322549626039
0.6944177584757982
1.0
1.0
1.0
0.3483277233412463
0.0
0.0
0.07511318985384374
0.26047245678124786
0.47556140646702083
0.5765778768618383
0.5452876246574915
0.52342409409929
0.5695564739263146
0.610022788717898
0.6091840157985586
0.6066922277109054
0.6197977071723246
0.6530669511214567
0.6357029883158727
0.6166992731146219
0.6239094881425195
0.6752387519443694
0.6915510710160182
0.6831264724067236
0.6895929202346863
0.7227980274229109
0.7530035892450468
0.7592373580803511
0.7727623342600901
0.8214435364803295
0.8597963719162912
0.8914358636986073
0.929876067638428
1.0
1.0
1.0
1.0
1.0
1.0
1.0
1.0
1.0
1.0
1.0
1.0
0.9467106664379322
0.8825371686155268
0.7944569446547766
0.7026212492034947
0.6377355712947057
0.6284848111487318
0.6091589075539967
0.5669998434495127
0.544292856171153
0.5520067357858848
0.5614853625663274
0.5374240347916686
0.5307418143511067
0.5461074799663466
0.5656800736174896
0.5470028761678464
0.5223370230261891
0.5408315141388812
0.5542650332938472
0.5662816621367602
0.5459198413527827
0.5415819653976979
0.5586670579217807
0.5475440046020499
0.5294770829365707
0.5299104964871008
0.5423675126553091
0.5142945295607873
0.4926044930262618
0.48523443929992977
0.5030384316787885
0.4911351630525986
0.4588332020206967
0.4500438419330573
0.4703793502486002
0.4846346942115969
0.46181313106405664
0.45497961231902123
0.46105844837909016
0.47065038129557396
0.4624553335959384
0.44603390736352877
0.46564279258723185
0.4713835107239649
0.45496415282864905
0.4377996289556984
0.44111225644912616
0.45883995235803726
0.47161303803777
0.4543361971046641
0.4359803401234282
0.46450986640820596
0.4662400513175138
0.44709323187580086
0.4523720834496081
0.4717781305713714
0.4648106594323651
0.44370601889927797
0.4329921840715443
0.4599148894105093
0.4726093690453693
0.4486251845358595
0.42819237481514316
0.453229306600704
0.4744405344914158
0.454457655127222
0.442213506507014
0.4489667817897686
0.47228847676069946
0.4639677675594725
0.4453549844556825
0.4431814608552207
0.4772895977715816
0.4768454306165725
0.4402932849616512
0.4316981607439973
0.4837138083509438
0.4811581613070615
0.4503614049427319
0.45789769376292666
0.5067760812422353
0.5380326251027602
0.5674393824100279
0.5439730116717427
0.6224745823182936
0.6811518036883231
0.6577993399760862
0.6051956729414787
0.5922910068344718
0.5878548438157567
0.5162925136414679
0.4469745488798778
0.4583625264314719
0.4774593930593876
0.465720250481345
0.41941269064825226
0.44053464772486334
0.44533299619882527
0.4482629017150894
0.41874260189287577
0.45060359773645287
0.4924668302299343
0.5981101923250363
0.8872737132914326
1.0
1.0
0.37911836185137626
0.0
0.0
0.033340763772885126
0.23525526313668035
0.43138534076132623
0.5176645538317038
0.5308510198209844
0.5539439763525891
0.5716966678533707
0.5712197473381025
0.6039687596179981
0.6383850833845565
0.6361564175522558
0.6247149561326836
0.6416157083709779
0.6832559236146929
0.6959654142789656
0.6609850345767617
0.6799905288138223
0.7233336785307634
0.7546175057792284
0.7463989826406798
0.7668266226885441
0.825179359419745
0.8706622568322144
0.8684137566980334
0.9059397800759366
0.9949653697881168
1.0
1.0
1.0
1.0
1.0
1.0
1.0
1.0
1.0
1.0
1.0
1.0
1.0
0.9513195509550624
0.83980022340993
0.7564469784398125
0.7155405926929826
0.6838844981014265
0.6379392172555362
0.6084919396493234
0.6228877812197038
0.6037883864372777
0.5911891740581348
0.5926054038673151
0.6069573481632349
0.6138059227664703
0.6088976932184049
0.5906640802190088
0.5994570572699944
0.6256534058509097
0.6254039691293102
0.6118056015223801
0.6135078645051287
0.6391495997350798
0.6149497528314848
0.6077730776006931
0.6161416920577623
0.6251400362381114
0.6102222842251825
0.5879739867589279
0.5631896912509107
0.5737539791755747
0.5957655417116484
0.5628374632388231
0.5515833722419592
0.561328130589089
0.5678877541026949
0.5500003601659273
0.5409720300144196
0.5456367100316974
0.5605035599883824
0.5373344637237831
0.521134960087847
0.5477629217450822
0.5715554675770561
0.5556275267942885
0.5142753894866845
0.5345447707039683
0.5487725711817971
0.5530033541702931
0.5251142087591882
0.520222722756972
0.5550588948574057
0.5369515555556792
0.5219150557427062
0.5231178586856744
0.5554644297409809
0.5556220988814221
0.5367291610034366
0.5270625835004763
0.5436361021935084
0.5542408266713557
0.5346787616440909
0.529028688326249
0.5405529066261459
0.5537139662409052
0.5274302092093947
0.5328419190637185
0.5476552638475793
0.5675459287189186
0.5350889470050089
0.5268942397777103
0.5461884663921237
0.56988138987517
0.5585717627429434
0.5481597317402344
0.5432421058476551
0.5575179518472009
0.5587812318061365
0.5571868791592581
0.5498835671469458
0.5875119752924531
0.582614949074857
0.5698564374746377
0.5714913819905749
0.6310963266249731
0.6818694238408878
0.6683706826245508
0.6938438460067882
0.7588242281041568
0.7834151849626106
0.7349172059627934
0.6811041706892509
0.6806389614519299
0.6343771050394891
0.5790803392614403
0.5535751168530646
0.5533952034084827
0.5664656014940331
0.542808069817253
0.4784566718297386
0.5077661074875228
0.5543768725249096
0.5569228767877157
0.5251125584160072
0.5271650992153174
0.5668616216268927
0.6755251407960006
0.942005307497644
1.0
1.0
0.8432240325629348
0.0
0.0
0.05071968732059338
0.33392842748850055
0.5088677361459497
0.5955761989032828
0.6074428250509101
0.6262462741231751
0.650181208784546
0.6453684644098324
0.6478841699339387
0.6929522207007687
0.6900172788607353
0.6859214701521371
0.7036206854899913
0.7371789847946644
0.7463482515097226
0.7192240622051645
0.7216892537458339
0.7607740016734026
0.7752685530249062
0.7839127866965936
0.7822886126733001
0.8340202608626528
0.8617009477762305
0.8527428120958771
0.8850303944623663
0.9499732452000851
1.0
1.0
1.0
1.0
1.0
1.0
1.0
1.0
1.0
1.0
1.0
1.0
1.0
1.0
1.0
0.9071116961525065
0.8364301707133652
0.7840543580191739
0.7005189599765309
0.6548157768030872
0.6501885715894025
0.6313549738581533
0.584735865826351
0.5700820319649538
0.5836016494857219
0.5956347864066993
0.5862585706536905
0.5720740075074032
0.5679228306151842
0.5953074798888484
0.5918987354802048
0.5873175670702778
0.6046376973580706
0.6246712582261233
0.6144352875033469
0.5913779817053728
0.5814552849368952
0.6108825408283771
0.61672114734126
0.5764855535340869
0.5632260855924368
0.5864490927747439
0.5749283826854146
0.5563418212102345
0.5478274401846138
0.5556719463617769
0.554440235236189
0.5205723842496441
0.5087447232269239
0.5254867238499402
0.5421242500753396
0.5025624192987378
0.4920545734630671
0.5012436148731376
0.5197392300097203
0.5121157766881185
0.49821666540808246
0.4908049757427194
0.5048595212212474
0.4935545044752024
0.45931464351367357
0.46243560881113427
0.507497681004551
0.4934107274413019
0.46691920284664007
0.46446303890037566
0.49037907692930116
0.4747320114289243
0.4419513858334338
0.44856042949033326
0.4696877886867211
0.49118267523962145
0.4604979169445963
0.4471825923945934
0.4678101946078811
0.4807471292210967
0.4720790889656981
0.46197648932898316
0.468675248334362
0.4958073214961414
0.4694741331038337
0.4583930998920847
0.47126845420067986
0.4886297856325639
0.4913082115875822
0.46449914645843393
0.4547682195732586
0.488741225733271
0.4970212193906744
0.4529656490057704
0.45829747154561423
0.49711808651462236
0.47978227936644907
0.47222836517115974
0.46433304166750416
0.48235141428741085
0.5115177374081514
0.4900439298515035
0.4620024845379576
0.49549577503793757
0.5043365010942831
0.5112580746322726
0.5263371866273868
0.5750047418549568
0.5907743745531633
0.6301067032510628
0.6320227616484861
0.6523238039232118
0.6781167504538155
0.6111686792961132
0.5594064113621172
0.5082223988077963
0.5012370564615722
0.4870165161435945
0.45573504475626764
0.4392608428830445
0.45596957084594986
0.43448945803940536
0.4121573291302932
0.406525567981378
0.4484830304505996
0.4595409809170533
0.4509559091742041
0.45806115254064206
0.6729769183976997
1.0
1.0
0.8318222044875669
0.0
0.0
0.0
0.07504025399150346
0.2890469616925508
0.4930169412981652
0.5190689574003
0.4897131987419837
0.4939070579470542
0.5616221768397359
0.5595104545849721
0.53200987845266
0.5539942084745185
0.5811334022235182
0.5861693556201271
0.5730720998574486
0.5890634663493423
0.6146038620984002
0.6427445267406308
0.6328567264944288
0.622618006607357
0.6516245180958762
0.6879785601447697
0.7156780739846325
0.7197847110878899
0.7726542408109728
0.8235234907543874
0.8478283186660575
0.8812297601383989
0.9549704350765907
1.0
1.0
1.0
1.0
1.0
1.0
1.0
1.0
1.0
1.0
1.0
0.9660862191557179
0.8767679711182318
0.790883489976409
0.6980078728918733
0.6191811651797201
0.6048822702434258
0.5863026611670269
0.547190552887623
0.49786363165615616
0.5001249022799426
0.518383643328056
0.5111649716273237
0.48939148463575144
0.4800008953910714
0.49987505697269113
0.5076571301120612
0.48571269499512687
0.49314581030030064
0.5246292578703725
0.517465276825382
0.46613639536975277
0.46686218222674947
0.5160873830229722
0.5136847216630908
0.4913384219611173
0.4800817162624306
0.4722830093167219
0.4814834991840171
0.46035302329382677
0.43847317678829645
0.44983543178513063
0.4754057097071499
0.44816246010736627
0.4220860693719676
0.43292687485213205
0.4686862948063208
0.4601845219237837
0.41007102270204887
0.41471416499207747
0.4391920746679692
0.4282049930526387
0.42384240646243726
0.42168021711648107
0.43120505429856515
0.4575437364257263
0.4209044879015229
0.4053036004957762
0.4274053984135146
0.4348608218116471
0.4324116104641469
0.4210305053262543
0.44462135569927996
0.459843824032203
0.43618827228668955
0.43927146282882407
0.44687489911716405
0.46561283018772104
0.4533599065230519
0.42031644674115826
0.4509176230670585
0.4673908341281548
0.45893714352894144
0.4433835128564171
0.45133150982610565
0.4714054195821575
0.47995056162459615
0.4586910221464386
0.46829650877734086
0.48250500743836966
0.4836696919850073
0.46349669503977176
0.4665189517516188
0.49829099456311055
0.5130687629945204
0.49055071999057187
0.475161176349563
0.493040970913864
0.5215802844276265
0.5027432423456284
0.4828410638331701
0.48970825186336864
0.5233720247148927
0.5059290661062598
0.500595613107357
0.5611883806891039
0.6250908528839242
0.6077193111405688
0.6299985817944268
0.6903086862958197
0.728623342438983
0.6686246530453583
0.6117761651183758
0.5954325106124245
0.5802381240154403
0.5356918549301044
0.5015943800056744
0.48717003698753236
0.501878895278557
0.48347299935899607
0.4492202342631783
0.4506897723981444
0.49029289471412013
0.5025947638173188
0.5011533100515188
0.48068769724192606
0.5609649333392589
0.8259268221221573
1.0
1.0
0.827675903017924
0.0
0.0
0.010755080923639327
0.29128284239915864
0.49302536720557005
0.5653022701672699
0.5345749935352921
0.5548784001828578
0.6045119415918502
0.6088970498814146
0.6016966362563053
0.6050837939608975
0.625600515062726
0.6483734413842253
0.6437881342269202
0.6448655537482131
0.6546095220762796
0.6850715135250411
0.6746807812734716
0.6804360821462925
0.7194813611500325
0.7480292248517791
0.7541927807244873
0.758285604354729
0.7985218828397077
0.864990164356881
0.9122261568094252
0.925590996859242
0.9639982778600228
1.0
1.0
1.0
1.0
1.0
1.0
1.0
1.0
1.0
1.0
1.0
0.9856894686893153
0.9187504642747563
0.8454876802208446
0.7499196336309375
0.6792321794682482
0.654967313711233
0.6239419697787856
0.6002014843666764
0.5563948888774591
0.5647110002478248
0.5756801645710737
0.5714280458290038
0.5456668205643813
0.5522068776383271
0.5850237170907555
0.5835489902632242
0.5753340542143317
0.5734835586420339
0.5926955161055187
0.5867156537742642
0.583532862432502
0.5605613878693311
0.6046184093140312
0.6141037998598827
0.5781665274401717
0.5448690450939564
0.5578480976418735
0.5715902222187739
0.5565591568247519
0.5288606964379874
0.5315286413804836
0.5416146883346127
0.5207467206894034
0.502832772316042
0.5111316437268545
0.5328687152114264
0.5112534587558188
0.4915483834072842
0.4880900776975078
0.5106325669761297
0.5069973672369648
0.49085892226043937
0.4742718892000803
0.5050423320256943
0.5103020361430513
0.4811499584642965
0.47298495955204223
0.4974023861902099
0.5018677272321572
0.474030395206551
0.4733748782214649
0.47667182036077893
0.5046873436608607
0.4863319395025866
0.468033295685768
0.4699051001544552
0.49879070692928645
0.4996795207746024
0.47333182351561626
0.4890154395567712
0.5125769458585682
0.4881679521184771
0.45164197212518137
0.474331661605908
0.5187660982593336
0.4951520555161674
0.4648099385770081
0.4706935655954599
0.48936576573512164
0.4899862998911858
0.4802287341110013
0.4749030407003314
0.4952014139153381
0.5062292425718592
0.47880140055189013
0.4672363696701711
0.48849712902853926
0.5103892229890649
0.4903826636472849
0.46678758657134595
0.48324487082690915
0.5006677759333017
0.5097047406047978
0.481465919870076
0.4764007659225089
0.49931481827625374
0.48679414398923637
0.483583575462764
0.498764233579844
0.5623857459837324
0.5767604420137579
0.5807007212502706
0.5748688784641309
0.6662219040013929
0.6896809764564077
0.6648538217465034
0.5775947840453572
0.5928039538176697
0.5707779615456878
0.49839188672162305
0.4363174553175665
0.4485892328500891
0.4593917637640385
0.40913310590671886
0.3959157347010172
0.41314633938343237
0.451506939731863
0.42525850925780945
0.409642440002704
0.4209156986551344
0.48178595319693135
0.6225555807218079
0.9610068749488624
1.0
0.9526099093403708
0.07923248764067212
0.0
0.0
0.15111520209917711
0.3457945035146809
0.457417076319034
0.45100751944297646
0.47686609464882024
0.5143624989339775
0.5139753926923649
0.4990540873058297
0.5267406153641214
0.541274254324109
0.5398735804002375
0.5407570366437373
0.5464674731583898
0.591157123489226
0.5804752566419051
0.5715408188116682
0.5965075262160147
0.6421061993967936
0.6494818568639706
0.6376607170756223
0.6532798777790244
0.715859546304082
0.7407381925634839
0.7622544857820461
0.7887554560322505
0.8601016994819638
0.9310148531591727
0.972045755801066
1.0
1.0
1.0
1.0
1.0
1.0
1.0
1.0
1.0
0.9738215851141632
0.9096011174135619
0.8020125660808859
0.6886722747028854
0.6043576776387193
0.5768364923827382
0.5170035332255296
0.4643967143415938
0.45793028399719604
0.46910920437390935
0.4679126431583036
0.4348214431014326
0.42600093727081906
0.45654054709791864
0.4570394274680196
0.4356412882071187
0.4141436146357392
0.4464212303722623
0.45932449576708934
0.43133963027268873
0.4087022558683303
0.42951274139062123
0.45096078280431395
0.42761308887946264
0.4008945617708992
0.39500873634420197
0.4200888637047869
0.4123787524753803
0.39698669017827254
0.3933907968691668
0.40096692675118567
0.3847677993945961
0.35775078131962046
0.3598353853526797
0.3795338540488128
0.37215338454348496
0.35548771167751136
0.3440646956139819
0.3811674449234811
0.38176123729326283
0.35202328828935336
0.31923126536968116
0.3354497498665264
0.35979867044505803
0.34694287622107023
0.3341450616764603
0.3438656077353023
0.3556197829569287
0.33580181354802496
0.307893218807563
0.328593903812511
0.3515251415508486
0.3499444382543648
0.31114439165826513
0.3250279336589654
0.3216295354451499
0.34652337977790604
0.3414449315807871
0.31904998345639735
0.35041151833809797
0.34606883915533176
0.3192910999159191
0.32449122025281274
0.34040989894750273
0.3579716704752364
0.34707939601225146
0.32678122630464135
0.35085656158718237
0.3680711641827852
0.3599412859566252
0.33411784237218395
0.3450073153159372
0.3643323697891362
0.3433386724354894
0.33338068326610726
0.36906758124659467
0.37791150626150716
0.3855613445669878
0.36525996774204206
0.3574207103786998
0.4008780772880085
0.389843409477315
0.36708929333976237
0.3845694790487667
0.4315484662510986
0.4677529970446585
0.48161628975672627
0.4757984522653992
0.5462893281688553
0.5807952238005694
0.5712513490334834
0.5468173806352696
0.5371211248123423
0.5316432123585096
0.46421795061424637
0.3774091958489496
0.4020717496810671
0.42298761972316123
0.3970566969172003
0.36278164269604707
0.39343772121459575
0.3921292818514141
0.3804060056541045
0.38373670416103794
0.4086819396930778
0.44669374630047026
0.5107174711840099
0.7513146031095976
1.0
1.0
0.5381751727646102
0.0
0.0
0.03813236699757683
0.2279255944527026
0.40035582591629665
0.49039379797508575
0.49863826822572943
0.5213319188136729
0.5346783834956355
0.5313339367345823
0.5550907354125985
0.581454748680741
0.5857937285387453
0.5732070305584271
0.5986174467290104
0.6152322725925594
0.6302202125178956
0.6240941878188773
0.6439158915897734
0.679711492830539
0.6907015985565554
0.6747078046673554
0.6968097540265846
0.7386999062360053
0.7714958764242049
0.7827056194966165
0.8049027299604455
0.8665172954516873
0.9081432953447903
0.9469088272143885
0.9820106290359398
1.0
1.0
1.0
1.0
1.0
1.0
1.0
1.0
1.0
1.0
0.9231296862886221
0.8056089165816122
0.7361248827679479
0.6944062397960652
0.6436908143061826
0.5828858101083073
0.5603930730379056
0.5871854060033164
0.5693855495642683
0.5322886512272164
0.5337957707573727
0.5462368401147348
0.5557438220729933
0.5334566002840357
0.5131486925775028
0.5366429659812333
0.5580158961941453
0.5505470918961185
0.5300613080852801
0.5604572018722673
0.576007817013703
0.5487432104128128
0.5272325847002661
0.5490197446945714
0.5745624727818107
0.555044951045183
0.5176918801753039
0.5189692761872599
0.5377935332773831
0.5300349976203024
0.5037228383256361
0.48373312467425966
0.5174953892068018
0.5139046204246277
0.48963125165977806
0.48614554545412386
0.5073863388138453
0.5068136414866092
0.480312487841508
0.47212193310721473
0.48971493503056723
0.49854950402882797
0.493821109764375
0.4784995015391367
0.5135553761660454
0.5237111317203796
0.4977694198748872
0.48054526164028283
0.49849315757880597
0.5188271563775264
0.5122978497904909
0.4761232179895548
0.4880432161518281
0.5151495234215291
0.5087365662910646
0.5076010262577338
0.48580004798470133
0.49289842927004723
0.5040968969025682
0.49270094487754035
0.49244113072457096
0.5198644393094882
0.5225388782612209
0.4916613826923245
0.4778860556379055
0.5068976957566225
0.5289033511318375
0.5032350422765519
0.4908929378152962
0.5068084040576323
0.5165974577742436
0.5046183453851507
0.5005810533197877
0.5063288964935742
0.5237787109885367
0.5167936890114238
0.4826177807973867
0.49499498213293947
0.5297626910168812
0.5381087566729563
0.5111580594289872
0.5049886885650209
0.5357476787116096
0.535226825356124
0.5224418111246044
0.5112645646277522
0.5277077320528892
0.5423119025512635
0.5113066194252931
0.5103368217241637
0.5448913668634303
0.6035757555058477
0.6193338362550532
0.5997656396009401
0.6229366449138757
0.6963173280384257
0.7088879578317746
0.692434893295316
0.6495741312507013
0.656050695254986
0.6239392614625286
0.5447787237518176
0.5205986126715653
0.5490361565101277
0.5204402474108443
0.4759891652657454
0.4511181716262471
0.4793174531185921
0.5045725586147328
0.48215657891821095
0.4737688140990248
0.504901721160578
0.5519849159777992
0.7276543941670914
1.0
1.0
1.0
0.26416541211263195
0.0
0.0
0.24017902988387788
0.41643286847540706
0.5374066616305044
0.5530634136120197
0.5616952483337366
0.5572496602112399
0.5720689626354672
0.5762499185276536
0.6160753707626556
0.6096074886127347
0.5979800746464886
0.5997980664224258
0.6501511520103416
0.6481030541175328
0.6283913492850983
0.6218524732060037
0.6542866238115174
0.6963727225542069
0.6906913823032177
0.684663325288051
0.7244820641007409
0.7739271548668885
0.7852746060209993
0.8211863243107353
0.8773572679749213
0.9415866366090017
0.9730904496998332
0.9965903760143723
1.0
1.0
1.0
1.0
1.0
1.0
1.0
1.0
0.9821595948154869
0.9052025167472764
0.8208727920729757
0.6961912634318052
0.6183318373333208
0.6129313719751681
0.5822956379651327
0.525289845192588
0.48592409834316985
0.5071565875412585
0.5217755959421366
0.5097088293613712
0.47299143344777483
0.4852048920045827
0.5014737728214397
0.48806975622224336
0.4646590682427538
0.48507626618558186
0.49969644365967925
0.500129939931378
0.4726173884822578
0.4776619106085572
0.49570689871868623
0.5092630111522858
0.48976940135725416
0.4635603316085718
0.483293398084633
0.4581264670662136
0.44238452553017726
0.41970223392035866
0.44966317768261355
0.463345441461822
0.4158165144519386
0.38446246931749783
0.40401857923061224
0.4340385391566885
0.42523646946203436
0.38365200506499975
0.40255860868266824
0.42354695249769786
0.4090294665790154
0.3929173906730345
0.39646885909027835
0.42361035831637867
0.4126319060416632
0.3905276739229774
0.3850227365920649
0.41292716108640504
0.4103367194696288
0.3707968041255646
0.35932827713206167
0.3966374804981926
0.4126964726868608
0.3861229059701571
0.37588040703226727
0.3918260223144235
0.4186100257918441
0.38827427680880977
0.3861277087220355
0.4158830675001598
0.41393191722840494
0.4021176614383485
0.39459717843554437
0.401607029899724
0.42536292536558085
0.41317578528176246
0.38165982423143135
0.40424831430273833
0.42192873564752464
0.42221581852458795
0.40324787253977157
0.40748971353104524
0.4212866384623982
0.43112981462479816
0.4001749701550013
0.4037971408884472
0.4338788444749241
0.43668021693576947
0.4240637006212247
0.40994623419328047
0.42327600272760646
0.4251043892911971
0.42730365194609066
0.4148740740029832
0.4222374463064563
0.44164611770854983
0.4316499285565129
0.43549455924633795
0.4868775929175285
0.537059634416151
0.5248623460184697
0.5332036325877223
0.5737443700744648
0.6076822249094466
0.5881425753502806
0.5495444981484343
0.5395608406652999
0.5124610404577928
0.46263281408660867
0.42729326922420496
0.43399779833678903
0.443374724006219
0.42919899542396783
0.39228863323591223
0.410199448032718
0.4274187359184622
0.45136935408957424
0.43661801921672866
0.42609327223683524
0.4837786019379678
0.6515611446407235
0.9807076075023229
1.0
0.9053706158978174
0.17451807064503097
0.0
0.0
0.1593164131965487
0.35030603802359767
0.486002359567682
0.47912028943809404
0.4929109554338818
0.538576834408844
0.5762324035423405
0.5636261684144764
0.5554949157672435
0.5824066921084601
0.5940331805467156
0.5779329280296704
0.5952680590763716
0.6194726172345708
0.6410237516805617
0.6499763377160803
0.6416217567894533
0.676819179474267
0.7113220833382063
0.7053467369551836
0.7072672214358735
0.753832217094704
0.8013899074965971
0.8317791876328297
0.8384685256331309
0.8956093120073885
0.967751099933215
1.0
1.0
1.0
1.0
1.0
1.0
1.0
1.0
1.0
0.9719679714770064
0.8808417238617509
0.825247589796105
0.7614347166974775
0.687884847474481
0.6326966924301329
0.6137543785744366
0.5975532184609434
0.5789533007548749
0.5524597440033048
0.5676018451570185
0.5866792175669442
0.5766494755852708
0.541975748454947
0.5484811581784828
0.5636446993522667
0.5561564556678675
0.5468503087532165
0.5580872659685472
0.5734912801642962
0.5739705950889842
0.5571084282241444
0.5489930868645905
0.5761735193011145
0.5769601169867452
0.551263489426953
0.543937257575221
0.5463314807098094
0.5612953799383693
0.5353690721364343
0.5232322794724175
0.524025464620294
0.5293791662246204
0.5135209239566254
0.4959629570289944
0.5016379708159959
0.5305663334627294
0.5199020195902693
0.49108285650829037
0.48604101895012153
0.5203660999106157
0.5184685944639864
0.4901717151704184
0.48245375264130264
0.4990252337558874
0.4980500655768031
0.4822158455064584
0.47873085110324237
0.5076108709856972
0.5067053824571885
0.48213821967483295
0.47159718673647044
0.49024578739401514
0.5025768817846853
0.49811494022323116
0.5004100507898234
0.4953060246364475
0.5088478251176831
0.4965127922033899
0.4806633570824266
0.4811694576477469
0.5093927947150221
0.5080632654994666
0.48488553581188387
0.4944651830072315
0.5061752007327912
0.5068035566280544
0.4862822962259168
0.4800391405009375
0.5049008055153852
0.5152619370665793
0.48190598605461343
0.4787692660507356
0.5065153712043922
0.5194766426481576
0.49267662565241527
0.46739896931346914
0.5042130250100104
0.509978336672319
0.510313026407984
0.48963657210035344
0.5015538521759553
0.5210537645955219
0.5063532068451937
0.4982052612936404
0.5106183382078364
0.528713064107061
0.5287796754313778
0.510023188363509
0.5251774247990514
0.5726436281662307
0.6060956034134442
0.6117763461649953
0.6191290106355251
0.6900716764508878
0.6981385230589311
0.6606357671384446
0.6271403466531111
0.6324257079362929
0.6037824030991148
0.5321140251782509
0.4919314162170151
0.5081725900052676
0.5265070324212973
0.4861617711972501
0.46881676644462783
0.4839475094331848
0.5121037223922326
0.4951404990659324
0.4771721609846871
0.5043102043737177
0.5376202055795903
0.6452040968272977
0.9088711370664576
1.0
1.0
0.7009471393496858
0.06913537134654532
0.0
0.029325078314986895
0.26672520015443757
0.42347631586800993
0.541248411531755
0.5677864088916647
0.5520774325435661
0.558591169479502
0.5709171360690042
0.6219287901627902
0.63227970371007
0.6214701333604529
0.6110993173152082
0.617886626861567
0.6499082477861806
0.6497011404501128
0.6400272390822938
0.6704281600662778
0.6956026717153831
0.6966627605785681
0.6998452324215522
0.7106548348348628
0.7413875407826162
0.759425829845094
0.7762563571171391
0.8134251250674742
0.8792303693196162
0.9192589005817073
0.9462984563582232
0.9693669143050091
1.0
1.0
1.0
1.0
1.0
1.0
1.0
1.0
1.0
0.9650157894500367
0.8553842808315139
0.7604196230902481
0.7049468843003556
0.6780704483836157
0.6249706265203168
0.5860998846578827
0.5568085482722381
0.5750030131412922
0.5517117795082936
0.5323285178373811
0.5203717893518321
0.5524538177016766
0.5478935041675899
0.5353258451324983
0.5156549314648837
0.5313290271829534
0.5503443198115783
0.5439001044684912
0.5252562908779194
0.5445716861776677
0.5457533056302427
0.5288849116600125
0.519479539316986
0.5182615579405503
0.5213015003349677
0.5005666643063765
0.4849528143604065
0.4757978352093084
0.4999521802531125
0.49046024372851643
0.45921408829199645
0.44857498825874237
0.47138149922457184
0.45781130409357945
0.4473130800181274
0.430920606591228
0.44350359715278637
0.4449432302933327
0.4152289819758915
0.4030906790003289
0.43791992216061504
0.44820381776971485
0.4349183843123874
0.4168898920174236
0.4351452766592967
0.4515095256580885
0.4342435077735879
0.41223655541392573
0.4076715907249057
0.43895337767723114
0.4264366004108779
0.39608887511377633
0.4052254867587933
0.4344420240693232
0.4168372344380412
0.4025608778760029
0.3973033864946297
0.4299413322844723
0.43121132789695027
0.4192357082550089
0.40696581891956196
0.4352461797048197
0.4143872747264874
0.40466740953557306
0.38833703684941223
0.42663939697559894
0.44558630280422085
0.4185357605741412
0.39306931973531245
0.4092829018240388
0.4213450128083139
0.43482835676468456
0.41002833474045114
0.42169559293615383
0.4368304010433267
0.41731100348830896
0.40492880093661077
0.42309549916234285
0.43728496317052484
0.4235660890888579
0.40138458328951643
0.3876802788026594
0.428114744869348
0.43316787651343647
0.4321156728546619
0.4672250107396418
0.5062775113006392
0.5206088825911349
0.511778933560738
0.5559651933183989
0.6014699022961153
0.5809997504948142
0.5350285147271538
0.5061894202368167
0.5023998483893757
0.4524593099446504
0.4134070025531288
0.402407422735189
0.3858445627570264
0.3954582870655632
0.3916633011304434
0.3834651253704302
0.3777072149845776
0.4104487187570644
0.41925820165955335
0.41837985773429276
0.4263090600370017
0.5754628876238466
0.8498563523524636
1.0
0.8928781357761177
0.2427474102731472
0.0
0.0
0.0
0.15969439566125185
0.36707143419609806
0.43935428871183524
0.41765865870441976
0.45143890842044315
0.4955093516937783
0.5018999580445359
0.4823783610156533
0.499326424934144
0.5388404046235165
0.5400376023948932
0.5343197825585045
0.5335159140588787
0.562357263237699
0.5719882072407634
0.5695400409121978
0.5843561484422829
0.6200139855750795
0.6316881784714925
0.6391437009177865
0.6580457683484958
0.7186937712071453
0.7612009575462337
0.7834703479079737
0.8059245406476542
0.8571809319852912
0.9397368887513513
0.967690740717407
0.9882251498105947
1.0
1.0
1.0
1.0
1.0
1.0
0.9244594375991045
0.8308465424273297
0.7604297247187668
0.6946008207374665
0.6287915770645761
0.5668697908879295
0.5272352578306102
0.5253638723966134
0.5167772892945922
0.4946545869042357
0.48128396099120324
0.5075507776954662
0.5099211172788951
0.47441092441529553
0.47884935464833206
0.49138388441526154
0.512044447853431
0.4955818041008084
0.4892761224123886
0.5024570153326982
0.5289527125284976
0.5131593898903207
0.4862261980053367
0.5022004980735391
0.5120740070719341
0.5017974400717456
0.4778050586398771
0.4713613286131693
0.47300171573215205
0.4638456136801693
0.4186622698864727
0.41954200392207375
0.4585422077093792
0.460095355333409
0.4248348341760134
0.4102198344485761
0.42782565687085966
0.4298281104973226
0.42228171586025604
0.4113091031533015
0.4142552998502193
0.4189251409448279
0.4299161877794343
0.4068912690349317
0.42507384669994386
0.4436972305272319
0.4233527439097656
0.41117385503365506
0.4088759706852551
0.4366561571005459
0.44222177459611994
0.41593660077404043
0.4182676897652449
0.43833757321687034
0.4394125979050851
0.42033490691490566
0.4190509047561415
0.43975904798443854
0.438190841820948
0.4188771837806652
0.408492490914357
0.4413991067205204
0.45062211065072794
0.4245957383513508
0.4129570039115644
0.4252928356148497
0.444329153182289
0.43217459022856186
0.41237009890467846
0.4286510147764444
0.44741323322483983
0.43359216654120986
0.40930628525552953
0.42447668802545524
0.44840437114972376
0.43610811538055083
0.42056848749379194
0.43268111001618126
0.46307081193988664
0.4580459800756354
0.4314512150645154
0.42574989862538776
0.46901314554826257
0.4744194811864091
0.49296933001967186
0.5323246376240639
0.5524056220430827
0.5958132346373279
0.5987321390794678
0.5948229127819162
0.5974042498785962
0.5899235054931722
0.5642349621701891
0.5376895087654192
0.4867881636113249
0.4695425170141851
0.4383372141985009
0.42355491237255805
0.4457557528036954
0.4453432471431008
0.43796650530930686
0.40957693666354844
0.4111547454767711
0.4544044881544381
0.4699126914113962
0.45730121492083364
0.5327514956593009
0.8047179129533337
1.0
1.0
0.7940935979491835
0.18756883760649928
0.0
0.0
0.17826858606931303
0.35027675983478357
0.4898698010770861
0.4994201054575269
0.4738450976014388
0.504066493412831
0.5408406766695404
0.552532927513324
0.5468321352121388
0.5652480016533314
0.5876952192591537
0.5855232163034902
0.5706409403030922
0.5930191010734355
0.6241171941050855
0.6284151622812174
0.6183510602678643
0.6202581287410116
0.6591651028393578
0.684481909208301
0.6915114966422715
0.7113313941283665
0.751359659537363
0.7880862129247962
0.8132033563736304
0.83806085734149
0.9151566882341953
0.9627466480512581
0.9886046730837006
1.0
1.0
1.0
1.0
1.0
1.0
1.0
1.0
0.9159875393269379
0.8400230870732408
0.7728347640681703
0.7042073659476172
0.6166559870086858
0.5807518530673481
0.575429738316978
0.5618979202404385
0.5275611951178986
0.5120390178442598
0.5214824364495452
0.5257490886087153
0.5105476506336999
0.4973480978868922
0.511150112124916
0.5275550939115848
0.5021881919447487
0.4951563030617108
0.5200885883795409
0.5402794614418365
0.5243958266440826
0.504103915426936
0.5038446841429577
0.5256209357490746
0.5225078724357981
0.49184658334722675
0.4817013704078749
0.48615093347633226
0.48009748749513675
0.46505858457711763
0.4593693979832266
0.4642843773771177
0.4733153126542553
0.4408908308344398
0.4260490288452579
0.45325887675607374
0.45655007207423487
0.42832879868748125
0.4020727336256519
0.4295443714325696
0.4347969526609633
0.42022302745426476
0.41316631588549313
0.4224465105823844
0.442883808794158
0.41880930788073983
0.3892642704858904
0.39538662395640783
0.42334498492842315
0.4278109313196296
0.3995130192815365
0.40608202006235317
0.42690070960106796
0.41778156855492804
0.4181372798899344
0.41302759651125226
0.43204231783906577
0.4364400819244299
0.4081835257067626
0.4041450566860589
0.4314665236461588
0.43884516105344173
0.417480457100112
0.4081592839558244
0.4270835975485051
0.4459589215740225
0.43885628801049076
0.42062019810447754
0.4349178334630309
0.4383273475784232
0.42755123867000855
0.40099589037964806
0.4266110886348956
0.4409667844601753
0.4304877007478816
0.40849236154406976
0.41929669137518283
0.44295258237898905
0.4562035690373326
0.4376974735257913
0.43443980185989206
0.44912971637287685
0.44206036939062165
0.44169949730775243
0.4403565689641532
0.4699015669969039
0.49795160809903233
0.5077358040270823
0.5082403673047041
0.5486299072832728
0.6085480428314916
0.6082607092407628
0.5849733991515838
0.5575129093475394
0.5513479366822053
0.5329608579061402
0.4705848202512167
0.44152011129801494
0.4595449571499374
0.44743102589715045
0.4041732088491914
0.3991999575916064
0.4212768995425953
0.41666332847092696
0.40910566751038974
0.4015832309971506
0.43719247056391597
0.45954711716934027
0.5323989465859387
0.7365111880174244
1.0
1.0
0.64069731249099
0.037840424703121565
0.0
0.0
0.19475104523444195
0.3329331543515063
0.4553125563233227
0.49629971918796034
0.47690577916878507
0.48154448367007036
0.499820168150981
0.5262777019271023
0.546144695165312
0.5263556930604619
0.5376397481155674
0.57866421313848
0.5776151111066653
0.5438282242382078
0.5487464557259415
0.5909165053039269
0.617651548959014
0.6060674719876195
0.6162307759949093
0.641638007203826
0.6819005939731538
0.6831014668699013
0.6995499809658319
0.750836352489409
0.8066236310465642
0.8338611888024285
0.8760849690535781
0.9398840679562117
0.9934496781425773
1.0
1.0
1.0
1.0
1.0
1.0
0.9604278575918487
0.9148693717680253
0.8374433696869881
0.7267644141366234
0.6694180639032696
0.649207915684086
0.5941527910370916
0.5319001061409343
0.5004759367560431
0.5179565144916536
0.5132726367101225
0.48012603970731504
0.44671620498177145
0.4752230119234187
0.4765556638470865
0.470608639262948
0.4598025885796762
0.4757948344350547
0.48462686507105257
0.47447603756576734
0.45575683013445334
0.46431799417131403
0.47797645267429567
0.47526111614968736
0.4465255316902912
0.4508120034447442
0.4649359652998991
0.44669936394724435
0.42741076818859536
0.4195393779745543
0.43044586620791536
0.4365397368332876
0.41333650813015055
0.3924114866958902
0.40512452672688715
0.42751524728080775
0.3941542257124419
0.37664518437872774
0.3834491234507536
0.3856381476560327
0.38434716040762423
0.3612536476833229
0.37454935476931955
0.3940728066237867
0.37703296631413613
0.3599781851536267
0.3868179073720013
0.3957966488214769
0.3878799547339796
0.36920372789958256
0.3730554465256105
0.4079611486175527
0.40971134888597566
0.37896755720834835
0.3582870644516851
0.3789555058153274
0.3921708611251559
0.3700283864350579
0.3682104364776276
0.3886117954721543
0.39917319988623057
0.3802990516482604
0.3492509871006482
0.37688878043819357
0.396282980280853
0.38737920601291503
0.37104336653461856
0.3752200683915065
0.40030943585559486
0.38520952126305763
0.3720506911715651
0.36876636233364024
0.3913410561881965
0.39930705252898413
0.38391985164031506
0.3914662857512539
0.42149024241469524
0.44528108027694263
0.45396409340399846
0.44566058164941974
0.4896456734343467
0.5366139718846846
0.5406041030334336
0.5133292552829928
0.5086692612779564
0.5068866447116214
0.44934092982173757
0.4007305683906016
0.38607760622795395
0.4096423668744945
0.39554329754500184
0.3630032814908093
0.36561990151221463
0.38196176900027623
0.3795431546987559
0.3770448892019008
0.38142095513484026
0.4144154914634404
0.41474594448227825
0.4887559439641894
0.7253699698255962
1.0
1.0
0.3858314856491191
0.0
0.0
0.00687240907210418
0.1507845994434735
0.2883751442891022
0.4199238475332276
0.4336972443703663
0.4192593253317174
0.42551520385799374
0.4598345876542839
0.47703568153630665
0.4712094102563899
0.45841382111563844
0.47564879686811495
0.5094145964888813
0.4973169910498763
0.4879944459206634
0.5066869556705219
0.5405508723979775
0.542642454603625
0.5271644811139373
0.5526312612646109
0.5806406044755222
0.6116710216350412
0.6074503947564918
0.6279097893028917
0.6682100004622724
0.7187412448957182
0.7458774009760442
0.7701010869264355
0.8209938569332251
0.874246841494063
0.9058867296332472
0.9098146218511927
0.9617925940552897
0.9848518907881264
0.9861872511395731
0.9668969372915655
0.9607058327495684
0.9439106325863313
0.9022161251725758
0.814337685442902
0.7517548134057611
0.7087551243358222
0.6405087729064641
0.5770397978955778
0.5323685091888329
0.5217268791636902
0.4948592765405513
0.4720205537545782
0.4470268530387026
0.46726549233520737
0.47405457350363517
0.44443168634773667
0.4449724173152555
0.45820236627990807
0.47032289162756014
0.4615583962525965
0.4491278107701776
0.4496925807617993
0.4721445195023291
0.4613986639878992
0.4455717499551561
0.46204251237938854
0.47836198784290984
0.463242945252749
0.4392171043321085
0.4443008052071846
0.4538788777905003
0.43784351563149915
0.4239561857798032
0.4262075002974079
0.43410364326700945
0.42973959054938105
0.40663108782871327
0.3928541948167739
0.4159526042577806
0.41311323237869485
0.38680303731422494
0.3771754251355567
0.3957973380212236
0.41067576043994763
0.39997407379371086
0.37615067336091235
0.38381808956497165
0.3992924037315209
0.38930360633611
0.37977239364040866
0.3831006287083677
0.39995448893312896
0.38908283777808406
0.37269306387065415
0.37203470047419457
0.39402377546689515
0.4036001402005505
0.37778079963344896
0.36838872986620597
0.4001811282461577
0.4015887773123251
0.3809977852037914
0.38161369627479014
0.3966714669653362
0.40100174173119907
0.38275400536508875
0.37584638311756524
0.40629043162600975
0.3970403674944311
0.3817780555040171
0.37338589287841223
0.38816239498582106
0.4053469503964564
0.40450112901472457
0.38852950030929057
0.40279130814679814
0.4138407041164971
0.40936320922100844
0.40189358940129977
0.40077884158052585
0.4265951460662761
0.4479778283993515
0.45815358376741544
0.4769149257587705
0.49710071616656426
0.5575694130500747
0.5594013250956419
0.5368509957145761
0.5214475954097233
0.4978178340721778
0.47690254320267156
0.4267257385078638
0.41659601308042377
0.413393806707892
0.3901256324381482
0.37023370288803764
0.3852313183532849
0.40949423754940667
0.3977007249393437
0.37008880211702844
0.3952875562008505
0.41845744960870707
0.440169663524279
0.576562369473615
0.8959064786018054
1.0
0.9410549236722912
0.3046041505675481
0.0
0.0
0.1758490687627723
0.32191641149017636
0.41170132055716513
0.43856950979928244
0.45084702240986346
0.4689168929362946
0.4652586463791423
0.4905686812191526
0.5096685821690842
0.5069903238231289
0.5086891457547482
0.5100778125957014
0.5532885562230487
0.5481348974241605
0.5253687799280644
0.5471828363072794
0.5815993438393123
0.5932350706061024
0.5887795966060746
0.5892089100833534
0.6402841553239156
0.6561278693808772
0.6617633870929507
0.6905647394896943
0.7420165303763464
0.787393852031261
0.8060289356768175
0.8406377807470452
0.9069703728634423
0.9650089659120841
0.9720196228165763
1.0
1.0
1.0
1.0
0.9594698157131564
0.9084209008675659
0.8547812575223406
0.765990314959825
0.6686367823948774
0.6262286427020397
0.6000202541031424
0.5478691041834213
0.49683365471816743
0.4683000407546537
0.48176897123541923
0.4723754872272895
0.4587469539739322
0.4402741350629503
0.45828896581086387
0.4555264739057544
0.4468812199027189
0.4387146933008742
0.45573857961927206
0.4656943636909997
0.44587028919943583
0.44071767477988744
0.45816916282875075
0.4814257460840353
0.4627850231762961
0.4369673878219631
0.4378245829238234
0.4638504918974492
0.4471133010274899
0.4288763838343478
0.4179621772113792
0.43439775065692626
0.4157615081248311
0.3973142376838411
0.39818940605323655
0.4171823955518555
0.4023929941087797
0.37944636447063057
0.3729350115295041
0.3956294838482196
0.39734608610453637
0.39390467285348657
0.3756162981284813
0.378431033560796
0.38881768873588973
0.38493141499043615
0.37411832030696884
0.3810485250370134
0.3916941675491115
0.3762434306872988
0.36340127171860004
0.37338782262764364
0.3996421838264719
0.3729350348261835
0.3625287970965913
0.3768683172533403
0.39249192030870705
0.38767701955873496
0.37480060224417555
0.3665582124970069
0.3932125960413608
0.38426975715453554
0.36605874961961643
0.3714404915974691
0.3989557534153441
0.38416839597924135
0.37243673370130115
0.3637847724910232
0.3788148284451882
0.3945197309002551
0.3730290811120557
0.3666652419326558
0.38732387394640966
0.40560568695679705
0.39545015295639085
0.382131943915956
0.39224237094154746
0.409193465632247
0.41191691944589304
0.42455989945245226
0.4507286039772394
0.4802785835461553
0.4915418979942284
0.5085829895683143
0.5279737935091785
0.5464335387697735
0.5270368810272774
0.47645436395217755
0.46117716828744604
0.43467063381724147
0.40064135381046945
0.38343617343444086
0.37611479143907517
0.3855854956392505
0.3822168326932739
0.35950413857569724
0.35692482950826454
0.3768698995214481
0.3935430006084431
0.39964722181151313
0.4431183014083733
0.6282290697246549
0.9465926406705485
0.9997513273664609
0.5227664574256767
0.0
0.0
0.0
0.1451869381962109
0.30641338775796206
0.4268564073347868
0.43269893438700296
0.4174925111443983
0.4224433877043504
0.46298707689141105
0.4726066938721189
0.4683550071572681
0.4712726770746822
0.4952467435930032
0.5127514435934628
0.48965396929111626
0.4796744515257479
0.509562745986016
0.5348302464002794
0.5327481206042675
0.5251814160320711
0.5364070296808233
0.5612655318457278
0.5743788631689668
0.5841368380562978
0.624895539267467
0.6612948715716754
0.6861784921680526
0.7017952734489813
0.7543597560079478
0.8185151440448525
0.8596836546894968
0.8685060519397805
0.9035493474932224
0.9601474938423896
0.9785858017852194
0.9853529764825577
0.9754661233723543
0.9819013702152108
0.9534226373916489
0.8941583183577976
0.8083262879008348
0.7496895932438966
0.6801312055189372
0.606671270259417
0.5417149889756228
0.5135516223968398
0.5019982832340265
0.4741764658994517
0.44352931689663677
0.44757295903016797
0.4632154534019839
0.4461574188117483
0.4305520365408263
0.43152291154053907
0.4421118930611752
0.4578830364618187
0.4298293014771172
0.42489455029999357
0.4568516733528828
0.45922591758410336
0.43094027262102036
0.4308338144314474
0.4528162235985597
0.4462869288389822
0.4480579702845441
0.4288191384616703
0.432078926896393
0.44247286374045663
0.4221917977953325
0.4034686756852935
0.4078714151093192
0.427692144445754
0.4253433602091481
0.4047377300540397
0.40640104843249764
0.40905088640822385
0.3931355289738138
0.38081206354875075
0.38879149142461483
0.4112554134392772
0.4062749186136362
0.3867102799905397
0.38082152968956956
0.400481233729418
0.40731265262286664
0.3999431380339259
0.39197905582402537
0.4047266949005687
0.41428989889308515
0.39838123615705845
0.3950565722316075
0.4106783027486169
0.420999246858477
0.4145146685531091
0.39326774568861184
0.3964844785954148
0.4092009866495518
0.4141084315333051
0.39900234495987374
0.41054245966466174
0.4283796671551177
0.431251264177037
0.40868134936728745
0.40793175571093104
0.42770503158640444
0.42879859855475877
0.4126282223170367
0.40268149539391807
0.43937213197462127
0.4489809634443175
0.4273283984210391
0.41135302887523706
0.43321668805996555
0.4379445487759169
0.43615203140921965
0.43367455429381546
0.4422528815079323
0.4484101068793495
0.45633529705838277
0.446905296043756
0.48729042031540704
0.532669705948194
0.5294964102709022
0.53232111741855
0.548687211746002
0.5709203301400304
0.5393677311609173
0.5026640867679842
0.48350846554482746
0.4628812046685186
0.4492557442828895
0.4329682679037951
0.4334237020938884
0.43829710198312544
0.4297272499367157
0.409471536886899
0.4081337895615554
0.4246068407415935
0.44931833246932584
0.4497430284606552
0.46677439399702314
0.6288237643118204
0.9444462632276487
1.0
0.7506826791103738
0.1390073327284725
0.0
0.07010806854763266
0.25477828497567573
0.3806413556162852
0.4793520629626589
0.48438319199801977
0.4662217957045282
0.48129545819200514
0.515277118093171
0.5279113606373838
0.5026504861356806
0.5157248094923158
0.5483903731342236
0.5536836603726657
0.5450227182365177
0.5510023449319946
0.5723776110212565
0.5946863266486139
0.593260294333859
0.5995548160038089
0.623302802732768
0.6490520561069533
0.6576153054932996
0.6689082661204353
0.702622665257814
0.7365217699125782
0.7670955447208309
0.8024736711221478
0.8519002466710258
0.9116846905470896
0.9453688320063354
0.9608411087509886
0.9833142908402165
1.0
1.0
1.0
1.0
1.0
0.9596032880014495
0.8786982207429095
0.7998491045810278
0.75072907660319
0.6918426678286568
0.6176792345174575
0.5637257980839119
0.5573551271377352
0.5609224171250262
0.5219807649046426
0.49725567438489715
0.5024970387605515
0.5218710783704859
0.5107475852671863
0.49613723722394737
0.4985610535941139
0.5238271521354084
0.5253426440333622
0.5079752308414099
0.5048188099811802
0.5343015329266226
0.5382912895876308
0.5134600431752493
0.5026902944419805
0.5338631267321617
0.534139121040363
0.5206186932612393
0.49760283976693953
0.5116745328515196
0.506691574805587
0.4870217076408676
0.4753546782651162
0.49579408825827276
0.49695063856573396
0.4813374224552012
0.4635255943498889
0.47502393609976296
0.49099648709319493
0.49500831657375094
0.46523327020289296
0.466726004106749
0.4885164338398065
0.48826663471816634
0.4770165079048426
0.4821025403087411
0.49051867077699896
0.4934179096753907
0.47525546660941786
0.4781291822121222
0.4972809285590989
0.5073466866830731
0.4834330456823744
0.46760235664192085
0.47378245573571187
0.49324526265927454
0.49185303180392576
0.4790562080983949
0.4887524746747777
0.4987122348247673
0.4855649584780095
0.4767217203565036
0.4955430291043964
0.5115917169835092
0.5003801530625887
0.4926987074482637
0.4948980994993846
0.5055883953139483
0.5107141172863496
0.49139369066830296
0.49827020098508923
0.5020259228619256
0.5017773691064071
0.4905941077896404
0.48591648546719685
0.5128602968958517
0.5223525271615265
0.5036234054779285
0.49507084520739386
0.5155867697735911
0.5264008145798289
0.5234941864556356
0.5030425523516002
0.520691994648348
0.5316705553703847
0.5291731093405186
0.5113503802720817
0.5169611842143729
0.5406636961480755
0.5365705727935126
0.5448595091043115
0.5787321727469993
0.6335950927682583
0.6300249755834484
0.6299137384860795
0.6666992979874016
0.6827278460318914
0.6806620490186495
0.6255851797574209
0.6129740374220847
0.6048745702069163
0.571830059280863
0.5429160768652684
0.5209763433640012
0.5426118987696571
0.5349053065298276
0.500875047754777
0.49420351369624616
0.5221087642130914
0.5480292102007824
0.5403005276721109
0.5403663624948531
0.6500785628113193
0.95867834042784
1.0
0.8440851048006304
0.2155821898598417
0.0
0.20536123935342393
0.4113598239040705
0.5349540666231111
0.5868235905413871
0.5940089918944867
0.5807510350217491
0.5746806428929264
0.6156861001482042
0.6339219146222693
0.6275558383941747
0.616725248351471
0.6298603761894628
0.6441119251019256
0.6396370849378351
0.6363307480482916
0.6449205176780479
0.671177565047167
0.6802724960974513
0.6701855918985935
0.7072222375871056
0.7391787695874544
0.7534656298685631
0.7496625985231473
0.7820154913063517
0.836939324441967
0.8780242906283299
0.9100091829877821
0.9389665124663187
0.9949479662964539
1.0
1.0
1.0
1.0
1.0
1.0
1.0
0.9598650214578122
0.9081373151652447
0.827376504873472
0.7447322903096617
0.6970149985426698
0.6714827639191405
0.6420915023662428
0.608988102770635
0.591686617044912
0.596569132852121
0.5917737518764226
0.5681181181461891
0.5635458480074623
0.5817158930254362
0.5728655514148496
0.5540842611399635
0.5484275769587286
0.5720078824639254
0.5820371303795262
0.5660022493998773
0.5703304206820147
0.5752115613180151
0.5817583660114651
0.5755704656898806
0.543427950167945
0.5693748984331536
0.5789864753531536
0.5606095783031935
0.5317587765511614
0.5345557233400944
0.544057995985065
0.5348793050795446
0.5260062594090146
0.5169246128415533
0.5230336583919718
0.519062738972077
0.5022361463520207
0.5020124966125676
0.5161896324870505
0.5117048888350099
0.4995474325479883
0.48733782522666785
0.49586196536951865
0.5154292480649687
0.49715371382793344
0.484115415930969
0.4928500225859621
0.4979004203096733
0.49786309153337777
0.49511409941407597
0.506245812363975
0.5191290336021288
0.494204376738575
0.48298052523757934
0.5012929464859155
0.5051622779524249
0.4950774887226639
0.4920781882987863
0.4852302435049345
0.5041666637639948
0.5102555254919223
0.48699563142427804
0.4834995149692197
0.501279100827791
0.5032679174847132
0.47316404551333824
0.4856553707837469
0.49902730350756797
0.5056038121163378
0.49336852508647083
0.48363204365964807
0.4999840213735962
0.5164422680291266
0.5001469623793546
0.48839310145413606
0.49295474832729014
0.48868821092668513
0.47983531362998705
0.48794040548740797
0.500987293024245
0.51470315865462
0.5058514682099873
0.4750217856332591
0.4829740275113405
0.5109994745539448
0.5048954926635838
0.48263741738019456
0.4833792966631377
0.5046402469264991
0.5278071725741286
0.5506831767639848
0.5589400534648525
0.5725071084475458
0.6076096809850517
0.6016713906654148
0.598430277713979
0.6010034785706406
0.5877621514513975
0.5596037209467813
0.5047364400237692
0.4977144463415078
0.5015514705069034
0.4918372547066815
0.46663739130548365
0.4640225727969877
0.49097023549316426
0.4847740766827079
0.4798746325119091
0.49171154360860936
0.5126514498357191
0.5253451691014994
0.6197575277753964
0.8841206850771443
1.0
0.8347303861406156
0.17237187678409013
0.0
0.03319378266069384
0.26706632257914736
0.4052982047837334
0.4987053575153614
0.5251225005255635
0.5357362286448344
0.5301584402525472
0.5442708868352545
0.5690928482098326
0.588294868986598
0.5805630842891106
0.5828656612140255
0.5905072676628926
0.6112061377064162
0.6095784120216898
0.5989459787162628
0.6408943180514405
0.644034184324768
0.6576312885502411
0.6595729776578526
0.68378213203649
0.7128203942571505
0.7396545457226728
0.7413155142234483
0.7668340197522063
0.8246126093046016
0.8681759481970446
0.8944379097779642
0.9199315733578193
0.9751037393464514
1.0
1.0
1.0
1.0
1.0
1.0
0.9564545679707959
0.9087208254698869
0.8631104478898572
0.800587770973564
0.7212738668426207
0.6789803116171796
0.6595049980864401
0.6209988450149638
0.5933665316249155
0.5822680324799219
0.5923256035646495
0.5868673610594448
0.5690878875348551
0.5660284888448234
0.5780314837360914
0.5786666889517306
0.5669463962730659
0.5620920355032458
0.5697010294507765
0.586265884039959
0.5779365633767124
0.5721903166900251
0.5789367208150548
0.5939641451963961
0.5772649183659537
0.5666521492675936
0.5785125264393742
0.5916099981854763
0.5756934529658586
0.5540225817182053
0.5499130142425738
0.5627763123234464
0.5612557826244071
0.5327116662614073
0.5327551654931517
0.543859409647274
0.5447720649351339
0.532509610114331
0.5284861246158264
0.5367535629601095
0.5475412372500637
0.5202348825519258
0.5068246039745555
0.5194129698978641
0.5386734185469269
0.5200184862182442
0.5071860717920675
0.5167348039512509
0.5277871467439692
0.5300742916403195
0.5136194301234879
0.5051949275486531
0.5189973510958836
0.5157442349584802
0.5161518256691668
0.5200232674996697
0.5449913875882361
0.5430669877611762
0.517737362299519
0.5190645497092071
0.541436718003839
0.5424578211665677
0.520935950379351
0.5097519723241943
0.5271411116058033
0.5342538122937056
0.5243528551631489
0.5161913409242954
0.5264812289769496
0.5461124559992767
0.5272277851886341
0.5112102233807638
0.5334976506047028
0.537166355115595
0.5393264543417466
0.5125296832642485
0.5225740578066818
0.5408169567629152
0.5404403381330208
0.5231955659628931
0.5253424525963128
0.540805456640793
0.5425917956097346
0.5235684755649258
0.5357396294985319
0.553971928482026
0.5684873318194846
0.5419754353154612
0.5506077606590396
0.5980059330550979
0.6176944506821156
0.6215373440001766
0.6472496409502752
0.6755892427780685
0.6770190583161886
0.6384370524821245
0.6100791110471375
0.6078943975933166
0.5742230108847184
0.5389878868789578
0.5261891511166464
0.5410346901987513
0.5412089083418226
0.5197239152941103
0.5090112382773823
0.5072833150722442
0.5180200837295188
0.5155896458957684
0.511028348859538
0.5250912168382565
0.6555411569166557
0.9262196527048449
1.0
0.8896652363289064
0.3753201731030472
0.04218126589094675
0.12007272996557554
0.31635714638173934
0.44607556774715756
0.5537880271081888
0.5599785939951828
0.5373313044869888
0.5602782456188079
0.5874734880871717
0.5863463600304575
0.5705428687455358
0.5851724231021332
0.6082505000108542
0.6178082539316433
0.5983682866896908
0.6108286690621058
0.6296835233023717
0.6306881823397323
0.630666263858502
0.6383558641556349
0.6596231654580829
0.6712908504484949
0.6765517501956231
0.6835666896082555
0.7279279955599927
0.755675038089446
0.7678136459002876
0.7871015390525531
0.8478802396340448
0.8990405090350553
0.9028781491573412
0.9290640418478688
0.9720314645860075
0.9978427074853095
1.0
1.0
1.0
0.9985281665234214
0.9520191152423869
0.877974701046143
0.8216318390072133
0.7805220845483978
0.7271051171113239
0.6601264295911149
0.627776506543364
0.6051022480880844
0.5932900330198034
0.5739317954414612
0.5472280081451167
0.5559028464006376
0.5598016314168975
0.533705645928684
0.5320277806305294
0.5439007217184482
0.5534095421459704
0.537292158509665
0.5302355510225268
0.5476971929343135
0.5603647759029871
0.5643952218067936
0.5452775198278308
0.5474866376747537
0.5610760329752822
0.5561924951349224
0.5238492576792713
0.5370710233529695
0.5540547423487776
0.5521734881362509
0.5189754184793552
0.5090940401053949
0.5230755595710513
0.5297216282689743
0.5110860625818575
0.48517792819275174
0.5026244864701218
0.5088603178774618
0.4954886830633992
0.4881962036171523
0.49828296468956196
0.5079632286443408
0.4938484215811382
0.47488493406937266
0.49020501020015506
0.5052486374482317
0.5007637809248362
0.4862604358548167
0.4866930982969901
0.5012569688989685
0.4894347258145352
0.488703979440107
0.4847193732083003
0.5067645544062134
0.49659038219083335
0.47617090582758
0.4691812796828983
0.4957480058194771
0.49366786529375606
0.48077750859674284
0.4679127936613764
0.4822478299088669
0.4957252160092577
0.4878043033069518
0.4826952078171657
0.48581270153424655
0.49948934207878243
0.48462671189468115
0.4633979911735585
0.4808273093328008
0.5118893034381794
0.4791174395601476
0.46497842078186835
0.4758411041535763
0.4923971879009105
0.4853833715719221
0.4780047813088806
0.4842597468453997
0.4953930606322007
0.49069629521850844
0.4850166968337032
0.47577947230898454
0.5078344784206767
0.5090352510018658
0.49078897745302885
0.47920445788574534
0.5017096562801575
0.5090042424335592
0.4939298611873467
0.4855411772004337
0.4979974262957206
0.5288946866537937
0.5365252607744384
0.5408995447352994
0.5646212021249036
0.6131719242319914
0.6179008721199988
0.5952766866562229
0.5782298756857492
0.5745296774931125
0.5532945647375971
0.5016008990179597
0.47263276306739394
0.48793706692302125
0.48295249430644793
0.46872106162766763
0.4536488240978803
0.46162571068456393
0.4696672538552115
0.45448889521281266
0.44859349093926315
0.476704979634787
0.5010265184635581
0.5262151136881866
0.6714189069576187
0.9418665883535418
1.0
0.6453608391298504
0.0973906354710806
0.0
0.05147429903927607
0.23272857956339
0.35440712597677204
0.47218066681794213
0.5125350413968778
0.5015720871510235
0.5063361785671527
0.5272674134275115
0.5364229779486608
0.5380772050405079
0.5363772233691216
0.5421829532937167
0.5755117434923961
0.58720828392606
0.5737454672142567
0.5760121262740003
0.5896236002320342
0.6085685190737635
0.6237718693672942
0.6170167335515816
0.632395993719488
0.6684809661296244
0.6783048932001378
0.6806079356083617
0.7141641488467989
0.751016340581205
0.7718386549660029
0.7947279718585039
0.8423813282627396
0.9036094741712176
0.9339277809755643
0.9549202648549595
0.9636002088398865
1.0
1.0
1.0
0.9694204101887923
0.9304043572844289
0.8708822600673791
0.7919559660625076
0.726353051802719
0.6842310511018608
0.6451208831888329
0.5923370736932638
0.545386854519361
0.5442519834075317
0.5563296182747214
0.5353961774976226
0.5183083767268212
0.5188234110486982
0.5477857346889363
0.5356115640831985
0.5245429305043223
0.5296268355746586
0.5574053098124414
0.5372255667159441
0.5241109521133959
0.5201332452913323
0.544445772556563
0.5348784806766225
0.5251483436408777
0.5071854378657163
0.5202783498978804
0.5332306823275126
0.5102490124897253
0.4985700748636151
0.5149086519600091
0.5213294035820104
0.5020983004149626
0.4934962699957546
0.500272498279077
0.5083022385262985
0.48824460357186855
0.4676566079870198
0.4681286533365455
0.4886936522541167
0.48583911992458007
0.4759089356797281
0.4651805836687736
0.4767381237480007
0.4909949698277022
0.4730279853528817
0.46525058608414416
0.4879321381914514
0.4923814018777636
0.4695723616052766
0.4668935249022709
0.5015438562595295
0.5204471296358536
0.5000342206436215
0.4842842727274331
0.4986896263369963
0.510355053918416
0.5016445898044085
0.47921770758707094
0.4990442092339375
0.5085871032660234
0.4934640787149977
0.4853221218161926
0.489568239138503
0.5134689143801875
0.5091852813278577
0.4959426675824396
0.4923137277063252
0.5242451110456495
0.5192355449010071
0.5069975955222528
0.5007317397576021
0.5135595465362149
0.5177899091141703
0.5024274609288556
0.49373717737182493
0.5173706144786223
0.5129485198709779
0.503886302359075
0.48867463907775655
0.51525986978454
0.5331860724332175
0.5298089862334228
0.5080051326991872
0.5181267129825675
0.5369224376067313
0.5394236443700396
0.5516369484396815
0.5807473359989401
0.6124252687993078
0.6185336013705165
0.6236663294492361
0.6249131762417374
0.6323132332189857
0.605589125878346
0.5715923567829405
0.5328761380531268
0.5302146286630032
0.5210297703712458
0.5072049866568216
0.4988363026200687
0.4943810420827576
0.5020228888654652
0.48735045881316175
0.4826010191220095
0.49990698790745025
0.5207252160774413
0.5187916539221972
0.5330196198739473
0.7214288007619292
1.0
1.0
0.9022749890281714
0.31710589612817713
0.0
0.04597650721722859
0.27841948589068277
0.4276847759337562
0.5509490322825303
0.5536296709572239
0.5348988907928168
0.5555202634108627
0.58803184291329
0.6025878411492428
0.5989747503151748
0.5871486459317835
0.6024125015368753
0.6266193016232976
0.6256657895712026
0.6067425977352399
0.6198864794523365
0.6456530446801946
0.6441380377815142
0.6386152791968994
0.6666684588148638
0.7025093161908892
0.7120042048843567
0.7113533296179222
0.7442605652489217
0.788198938667603
0.8277944123216212
0.8440496890624196
0.8871223995908982
0.9442355037280947
0.9817954151980663
1.0
1.0
1.0
1.0
1.0
1.0
1.0
0.9979819631832832
0.9209552244472394
0.8399180587508024
0.7847475330369502
0.7282222398545721
0.6827811651567639
0.6286836931208779
0.6148549175818893
0.5957521102507546
0.572847493282918
0.5420190505728304
0.5503748495735451
0.5684771083597067
0.5559772477271234
0.5364946193103262
0.5298862814554334
0.5542309579850498
0.5607122469891643
0.5415093722953613
0.5459627370467077
0.5683410768301435
0.553653469358264
0.5421621426158347
0.5529111845170283
0.5662481490428231
0.5766933960826706
0.5551433620604596
0.5322578801929412
0.543978890594547
0.5567815747920635
0.5271008825725613
0.5025399265905091
0.5105576138051291
0.5154537946933619
0.49996067168075964
0.48439862570799275
0.49996814622383756
0.5108191139491525
0.4998941143396188
0.4760668075276254
0.46682257910741515
0.48121169567825717
0.49401730145011874
0.47394292297330926
0.4682680793831565
0.47411949155416994
0.4762460622061143
0.4782825880149265
0.4646306065181787
0.4764287435643916
0.48919821155576526
0.46712828844012344
0.4606651124350939
0.48344809770892433
0.4953099010564201
0.47216496515495576
0.4595399158957557
0.47417571632750793
0.48857956221385335
0.4671696113321449
0.4556048413816877
0.46762802947122745
0.4802788057780446
0.4850672425205624
0.46203201543727446
0.4655482818703537
0.47792456475207734
0.47819015619606614
0.45958489491912075
0.4435447930746865
0.47738009761814587
0.4895092290963438
0.46325156583197274
0.45954784361144096
0.473131319110638
0.47203556965965704
0.45349649718832785
0.44337280745033947
0.46160638187912645
0.47216617023811674
0.4567561938768351
0.44612387666915126
0.45247950928496383
0.4829581105067048
0.47089796286197483
0.44839703324678915
0.450864049368243
0.4643940854285106
0.464002448907193
0.45641540500367156
0.4767661002151174
0.518884353735307
0.5491676114449048
0.5226858069847006
0.544066731943391
0.6033834916510123
0.6353515975613819
0.6170400665744386
0.5795409811736585
0.5661558454694935
0.5622387581809962
0.49214838711525255
0.4325287576605167
0.4590101262478424
0.4631132481383598
0.4337198744191272
0.3963877458453624
0.40778573688468567
0.43712159240121357
0.42611850841144533
0.41585208514583594
0.42235164503288053
0.44099596135796715
0.4658538708363468
0.5982018166285343
0.924625320641734
1.0
1.0
0.3664130470950949
0.0
0.0
0.03628630683422198
0.20157833613625123
0.3424769690127536
0.45642807140299035
0.457897673667098
0.45342866754113426
0.46264963455379754
0.5083009211342122
0.5170513118349926
0.5059384608776878
0.5015624487477167
0.5177020227346408
0.5499683447872699
0.5557026830900977
0.5362811516060475
0.552098770684222
0.5841178455134213
0.5889419514060762
0.5856889102602129
0.6013039311309557
0.6406327069081865
0.64683912192633
0.6372594487455786
0.6724963187458192
0.7264297328607527
0.7744440259342698
0.8012734670982133
0.8272465059674442
0.9003335862128768
0.9723776784933673
1.0
1.0
1.0
1.0
1.0
1.0
1.0
1.0
1.0
0.9081040830881666
0.8219202296624104
0.7581337706791395
0.6784847517353181
0.5966570018742238
0.540802514546809
0.5178585286644386
0.4937825645187342
0.4535726916537411
0.4420540017011918
0.46254876712753373
0.457501427226051
0.4270343375806365
0.4163733994846888
0.42508432218311265
0.4489914525690235
0.44042626678375313
0.4167631330219971
0.4380461212298915
0.4547133135466702
0.4362555618177687
0.41890599938741674
0.43380701564182755
0.4558016508944144
0.437719394474021
0.3989783430666298
0.40245449090907137
0.41188402498634735
0.4052045899233443
0.37586083135100995
0.3594336999484208
0.3618963208732787
0.3735989733752068
0.35147809848172396
0.35115600823747123
0.3753656528220752
0.3640941019964578
0.34695531572544436
0.34698132175265395
0.3706315800445469
0.39088431535354695
0.36628311675863723
0.3396494277456753
0.3497719374804166
0.3718516288459036
0.35759011821903897
0.3402216457780514
0.3531615109216612
0.364173345205668
0.3504287217767271
0.338963979950057
0.33816904986084345
0.3598294992157057
0.3620918058219578
0.33901496779715445
0.34046605328937307
0.37578141003531895
0.36519433325032485
0.34052715398027045
0.33774248457056827
0.35590690061696945
0.3683332060975295
0.3576656906666008
0.3458268133961215
0.3758468342160938
0.3824547791363819
0.3495105226886393
0.3336747131008879
0.3541049649381023
0.38548630079117824
0.3697514104729274
0.3422444896028317
0.3424256934964421
0.3627102191328196
0.35889323546852553
0.3535802213061333
0.36362153116261237
0.3853865516966133
0.37238727675784505
0.36970789237301266
0.3746867469125627
0.39302648471235874
0.4156700670988093
0.4239514672966337
0.4279251441283405
0.4710020851124742
0.5032792772489662
0.528576262563245
0.5177307284759018
0.5120368796216603
0.5050664517835668
0.4639526820502711
0.4031967643800531
0.3817227678700429
0.4052008903394091
0.3757429574347183
0.32989730593971184
0.34012043068704895
0.35672439108097337
0.3627353646396969
0.34060288769555375
0.3444384939938052
0.37546956580814284
0.38881765463512263
0.3984028172433286
0.5501641089810092
0.8652472252451006
1.0
0.9344378299834517
0.1769486493931875
0.0
0.0
0.0
0.11364903498927274
0.3214454644107986
0.4285119745965534
0.4213112546539107
0.40233461645912066
0.44361511312300567
0.48090115664442756
0.4717156445624816
0.45790440660118115
0.48641399307517164
0.5093930615153568
0.5052225542378803
0.4953405434314707
0.5130467812814586
0.5533420874523641
0.5650142714206116
0.5499624042318524
0.5589694963505626
0.5955815775480543
0.6170915461701789
0.6265890766884402
0.6427566506706063
0.6925116452647185
0.7287809532426641
0.7406841179861328
0.7859812829954453
0.8346155306420616
0.9032640233973206
0.9550739592744051
0.9818917951014612
1.0
1.0
1.0
1.0
1.0
1.0
0.9674036167072586
0.8669359875537903
0.799267757216836
0.738509714141577
0.6507123646678759
0.5615810826800518
0.5325001947126721
0.5247026573047153
0.5077177534898423
0.4785797262907776
0.4628169275112947
0.4708396044903087
0.4806948188252558
0.461300858836682
0.4472291838598691
0.45726196332194025
0.46503303720809974
0.46215352827144773
0.44909255450116925
0.4658103479542512
0.4740811690735442
0.47658301610355214
0.4618722562155531
0.4515839999032537
0.47945409825730173
0.45273156718029917
0.45322018711736145
0.44955879374474844
0.4581164151755178
0.4457412369571093
0.4215331101821591
0.3961293048088767
0.43467372166367746
0.43792582671581554
0.4046716197038746
0.3936739313038049
0.409794837553702
0.4227988783493698
0.40656481060758853
0.3826194558544107
0.3917401023798496
0.4043033313825736
0.38440533297865037
0.3778365944268671
0.3923038786164304
0.412890405522685
0.39302953200710533
0.3669620758413252
0.3798072509340149
0.4069693660604422
0.4008014635472679
0.3779511478175511
0.38478437237746227
0.3943973470859752
0.3897511857064063
0.3794287523547409
0.3821180527136906
0.3995176250462185
0.393366611665137
0.3791264367932149
0.3694704252809844
0.39580845850844354
0.40897719706121294
0.39915091514312495
0.3749386136827913
0.3893683676325927
0.4052791266293334
0.3951578336158925
0.37982301304801347
0.3900527718872473
0.39537132993083396
0.37679780003036284
0.37701550437151254
0.3933698549655701
0.4249629371753184
0.3884329270340373
0.3589957904936396
0.3690132541194511
0.40052125455774057
0.39466679083758693
0.38838323229703314
0.3799325611839437
0.4001135485592586
0.39476367500507414
0.3931404070090644
0.39059599683442026
0.44964646545503484
0.49239129281159394
0.4830407406271087
0.497971440865211
0.5636286492550558
0.5764487669914259
0.538587101481268
0.4833085853160034
0.4814768925091955
0.47022702871106425
0.41149511147150786
0.37197319841825494
0.38384071062725117
0.38669303673307076
0.3533648696058879
0.3374545828456953
0.3482610803085919
0.3803333407322758
0.37481774490269
0.3542597180259325
0.35496943525535285
0.41312921754825965
0.5154913091304462
0.7685950436891718
1.0
1.0
0.6491872386145439
0.0
0.0
0.0
0.15151474115055477
0.2764986819156592
0.37768435693146146
0.4150624235021233
0.42215087146836405
0.4363611800243973
0.421944102162362
0.4436268354535864
0.45892042124565435
0.4818538691320661
0.47179016730066764
0.4861335135909786
0.5136938935505682
0.5145752547411311
0.49895645036543235
0.5153673641294858
0.5524608889390337
0.5771588279387657
0.5781384717123451
0.5818841103950152
0.6192534834743559
0.6575310707961618
0.6716284798758083
0.6770264305852496
0.7416890896660375
0.785549233057109
0.8264272994364689
0.8663839739611946
0.9244674360992718
0.9929851062847316
1.0
1.0
1.0
1.0
1.0
1.0
1.0
0.9647927955696718
0.88130143289665
0.7825203582198907
0.6891148551948832
0.6449960770794967
0.5866057843355603
0.5168160777325052
0.4717895880150228
0.46538555557753974
0.44716282458580797
0.41614601885429015
0.40531851989618195
0.42607589765669307
0.43021007307715153
0.42699472278850903
0.4061162751523296
0.414875049672039
0.44533027456341845
0.4235025576031126
0.40431775935747416
0.41736242931740203
0.447651177044746
0.4439979663368696
0.42259712185070386
0.4038147113695262
0.42679438814548254
0.4177885346876379
0.37746492907243645
0.3706813673808254
0.3824953978514438
0.38965753043287615
0.3648124668017017
0.35656775091631376
0.3750949614904921
0.371401777620693
0.3511475595174487
0.3242344838438214
0.34828013734814256
0.37104476575561385
0.3550169835680784
0.34532018809344683
0.34575844052438337
0.3689645588721192
0.35228302639503684
0.33216694064751906
0.3450666097499486
0.36560027912026394
0.3544657461457569
0.3296638802858368
0.34332184392260656
0.36553340747934837
0.3563793404590988
0.34101788231389313
0.3202471081680199
0.35534577255385036
0.349943755936232
0.3492649147588668
0.3362952296813847
0.3555238075008971
0.3568361391508584
0.34384133419938767
0.3435943313135258
0.3523363829374377
0.3757022626043544
0.3531574121425338
0.3433019776217924
0.3657974510918164
0.37995131751879074
0.3693993930026501
0.3467608408616235
0.34888382088257963
0.3647385577229979
0.3698363483928361
0.3530282966053027
0.3548531825944298
0.37276811516826136
0.37402726609233705
0.3690856554632086
0.37126419772676733
0.3823710296424193
0.38484371070689855
0.3689306635756142
0.3548825605721239
0.3744693260682827
0.39467185541235883
0.4139427665816016
0.42299071576864067
0.45037726511283543
0.49059096582372674
0.5098002822326662
0.4890383067303469
0.47951952594997466
0.46800255413741976
0.45387619955198916
0.39246475771521505
0.37225835089784115
0.3884086067666394
0.38300961902198577
0.3534237982861127
0.33556889820257396
0.3566414527858324
0.36320718091409226
0.34955803015553555
0.3498051072886259
0.37403921840340343
0.3761537697599696
0.39421302347311726
0.5458144953849657
0.8586173848576347
0.9716690924525186
0.5214951383362227
0.0
0.0
0.0
0.12561842805301668
0.24059816911306023
0.36285293408494496
0.4010471283644317
0.39350671176952634
0.3960943056646945
0.4177081563230688
0.45133305712037125
0.4451458693770336
0.4239735931760409
0.435035227464295
0.4718638920180459
0.4752076344518277
0.46810072109072676
0.45486705630722746
0.48971984388952816
0.5070823741548464
0.49421054860491054
0.4943608291244721
0.5315316972765222
0.5649478552524088
0.5610290505402032
0.571842107062367
0.623295052184849
0.6732239887117473
0.7030855140645843
0.7146027134054981
0.761784806395758
0.8180975658749849
0.8564640842160305
0.8774301358826762
0.9016414746789512
0.9494819988499585
0.9469051161040838
0.9337153657115131
0.915415147021438
0.8942361258092077
0.8415331695407093
0.7603176802438181
0.680851211858109
0.6315107207186188
0.5770816038602421
0.5190492949080956
0.475021450611045
0.4729789833703081
0.45840219786312464
0.444859712738263
0.439721349734126
0.43573973498448987
0.4533454980963036
0.4388308160918261
0.4075734263952264
0.4151618853517169
0.44950799009836634
0.44087386467006606
0.42628426319745644
0.4157486058529001
0.4411255589973571
0.43491483081665266
0.4304817629760872
0.42873546813226104
0.4425444713750123
0.4300122994282976
0.4084893981770791
0.40202587203418416
0.4215605039309481
0.42468135190808115
0.40380159020165934
0.3824637923414932
0.40194223251119565
0.42041726394195483
0.4056501824725281
0.39110237371427764
0.3989420411059772
0.409217390756673
0.3872564373600358
0.38181794814209724
0.39211523703861373
0.39980075923673425
0.3877720616278961
0.36880108605612777
0.38198770901006485
0.4132616859222341
0.40629267892164816
0.37672290962553123
0.37930453087594596
0.39491265672779274
0.40743060466013503
0.39709069770959615
0.3892648785280194
0.39950462027876316
0.4125293473989383
0.3989028398335245
0.3723820907923442
0.3939312846383487
0.41857351306037893
0.4008337258761617
0.3866409187945428
0.39304392473640143
0.4125129705295441
0.4061192912501526
0.3991961373428349
0.4067480102419583
0.4219846897173576
0.41055148452156043
0.4011430398010381
0.40033764985114556
0.42682946847706127
0.4245885692523103
0.411858060409579
0.40520138019205865
0.43125192617681424
0.4284877752846268
0.4213119922237877
0.4167876358971446
0.43175379630023053
0.4437316054176386
0.4294312992072215
0.4304065158752121
0.44398847612769493
0.478666661346461
0.4874807477766245
0.4842253076132195
0.5302254623442019
0.5594867029155955
0.5545047814792722
0.5118982445313971
0.49985807779872315
0.5102737949103342
0.4811827052445084
0.43837069310311494
0.42190858721596125
0.42760921189521006
0.4247277399382926
0.3963669333317457
0.3959486641790074
0.4162626921084039
0.4246442245189391
0.4024441484176256
0.4103842907871112
0.43252054118030775
0.4493497986312742
0.5280932174372879
0.7425447214244224
1.0
0.9458950340117068
0.47483961906395544
0.027615488003672882
0.0
0.1770258409152848
0.30282024969553356
0.3956139907643278
0.4424636739810485
0.45688175514427626
0.4570821028070907
0.4611633733901167
0.47425761425845747
0.4923614134725584
0.5032926846796124
0.4948437957341108
0.4908467723229826
0.5130333407006912
0.5238144697061016
0.5129863495193014
0.5170719375780982
0.5374578464452805
0.548490623676836
0.5432914833848076
0.5691079584014319
0.5896719612297042
0.6180955492997503
0.6281992124244811
0.6377679186471341
0.6650153878247288
0.7067471751762311
0.7305499765851333
0.74824427469021
0.7942473305480626
0.8436645166145784
0.8743565588433941
0.8850761621424835
0.9031201135180229
0.9232333898508287
0.9385563124406481
0.9310034733747434
0.8968603007378745
0.8790134804301106
0.8224887509408955
0.7407126389857814
0.6824085597533516
0.6463511222011152
0.5903523325991442
0.5503319676142002
0.503682160386942
0.49101821222125386
0.4969055743246457
0.48496576440654576
0.4692055962047629
0.4680810533241376
0.4684651368629692
0.4619408464895762
0.45100732825969053
0.45678118179312566
0.48732673196888665
0.48408906497246057
0.46442125096586506
0.4649001367794089
0.48572560890173644
0.47837225758812973
0.4704895642574393
0.4577729782208738
0.4747768245565577
0.47217972985904477
0.4576263542029736
0.4522953239136244
0.4588548088518111
0.45221558468593903
0.436300802322941
0.4104073415145453
0.4243892010411692
0.4547331466322623
0.4353291678919139
0.41669423474152706
0.41968251693912817
0.4287576564626555
0.42492050563288586
0.4171185106924657
0.42208122329663167
0.43580066559434005
0.4288137985814494
0.4052523414963186
0.4011756821012308
0.42571193077397484
0.42339871946652224
0.4091512163298896
0.3989995120429674
0.41485374922789225
0.4325289004352843
0.4048745166169131
0.4001344766152061
0.4152082833762886
0.4186407512400586
0.41784444125881137
0.41423196376325644
0.4163982466340109
0.43552004041559805
0.418472287387468
0.40468361226508903
0.40649700982375353
0.4262777345897346
0.4373628880925698
0.4217923457869991
0.4213240188607326
0.43371979567332336
0.4340088908023322
0.42257907279260476
0.4227957330508268
0.42855753584075507
0.43319733934645044
0.42468437750239474
0.4175183246941015
0.44177466729735293
0.4481964264333659
0.4257230159022444
0.40976615899643776
0.4344524460243595
0.4357561900026786
0.43327375661985246
0.4273649686015103
0.4366218866861734
0.4374888613963318
0.43332811572408103
0.43319429335041165
0.4593481594953757
0.4926286123047715
0.48942025612488094
0.49322353620768766
0.5248162528000438
0.5542630816302287
0.5647370263064571
0.5185494209237502
0.4986672417098427
0.5040115181750042
0.4646476748402416
0.43532156174982106
0.4203648682759951
0.43045666859725723
0.4214866228793891
0.3988902879346174
0.39386909125811476
0.41979419221867564
0.41797388381045186
0.4041386369332353
0.4062491594585566
0.42002162820663147
0.4716325746939091
0.6117477375576114
0.8621518117720726
0.9384200372485815
0.5681842868854586
0.08307722836599485
0.0
0.12892995054190903
0.30645855109040043
0.413947928322994
0.4324133340600097
0.43062615756085637
0.4586518115485144
0.4786629419307438
0.4758551894866949
0.4773398642292692
0.4981800875605912
0.4991051933965431
0.49890674946720637
0.5057947384140512
0.5138036086287175
0.5344970890335319
0.5197122684362376
0.518544880680665
0.5393112669549135
0.5603691320410731
0.5598414999911608
0.5691837315461716
0.5951758994086779
0.6176298314613206
0.6312100054008981
0.6408708855027576
0.6694840522470024
0.7195128261729496
0.7499402072556748
0.7762601565249364
0.8011826462621865
0.8502143207092331
0.8761315507072975
0.869161729250029
0.8823171783023398
0.8963439521708146
0.9033876613251607
0.864794867583293
0.8117762378794836
0.7625889902766221
0.7183419631702839
0.6547111455236061
0.5911020486322411
0.5577451005332624
0.5426550250690935
0.4994119982946074
0.46937843694706494
0.48158917599317447
0.491101549666907
0.47613062947144186
0.45680807475983787
0.4626652877302845
0.47518645835248574
0.47346783716120555
0.45939123019658223
0.46468877450602697
0.48006133753318503
0.47923238733354845
0.46940737570313695
0.4616218315492806
0.48736427604802535
0.4932812621278935
0.4687811946966958
0.4571778651373008
0.46007081310182085
0.47281269957499966
0.4523187685114152
0.4309367745137023
0.44438802600864574
0.44432585501296595
0.43795892471693393
0.42603827171056396
0.4306512848067946
0.4471365441481673
0.43030122754020794
0.4100643316451005
0.42256552868164093
0.4346977193780295
0.4312474346113079
0.41291940261085064
0.41858950041085946
0.43143398880974254
0.431941220686312
0.42097127209395546
0.41260281503841273
0.4315356072180501
0.43830875730760743
0.4202903220542293
0.3994145665545442
0.42688268939032853
0.44395202963940433
0.4293963270959127
0.4115766830685515
0.42743680333693296
0.4375828003829777
0.4330463002891339
0.4200158688755035
0.42634025901383826
0.4347385950251831
0.4175411244753878
0.41997506813786084
0.4281300372290975
0.44325673535594373
0.44107233083462605
0.42902734621886635
0.43253482213556865
0.4371214768932991
0.44428961391672894
0.4296691663917548
0.4189584190365908
0.43285049422777944
0.440224376781582
0.4408011072877077
0.4403292793035189
0.46040136705907775
0.4594082487234162
0.4452363060011021
0.4306656860542725
0.4387302064640444
0.4664539136197677
0.4550876286981487
0.4512807507865806
0.47112274291521333
0.5086065163215545
0.5047729580199593
0.51538329542679
0.5382505403981404
0.5610422172309862
0.5370585571055387
0.5093362116154591
0.5123084248720151
0.4766140268452402
0.44762825688099284
0.43254485225739814
0.42225483077779097
0.438434026333787
0.43399095737137605
0.4269896024119263
0.41916474927551944
0.42958255570381076
0.43608202306183913
0.44900459059645426
0.4431246849066561
0.5208106777848143
0.6956568519654333
0.9689450617839178
0.8851441372073783
0.38434057214087425
0.0
0.0
0.1908728159222496
0.32604283268010936
0.4576187549233672
0.5006442908306038
0.48340945710441974
0.49136296877281077
0.5147855755251938
0.5198021712663842
0.5124578545511456
0.5201443730055504
0.5481174844227017
0.558537176412689
0.552781888513071
0.5414075935127689
0.5647624888035485
0.5783068817031936
0.580316103165652
0.5693479123075604
0.593074622198261
0.6149077837272838
0.6167782469613637
0.6329716801938096
0.6576515844437317
0.696145616111296
0.7116652969689422
0.7286249395185603
0.7510811590109452
0.8023429535297263
0.8383754122085026
0.8541132119955254
0.879240322410657
0.9171324915442938
0.9268135056797261
0.9251223565961052
0.9218905408739182
0.9289657673016622
0.9015695182133925
0.8414714514068222
0.7910609184331848
0.7457564566171777
0.7051155325536065
0.6494893467006507
0.597549807530209
0.572867053576479
0.5677102418975047
0.5535370276497332
0.5458544960313267
0.5410895886774171
0.5512017256632697
0.5370061551189753
0.5253662671174585
0.5388562368425343
0.5455404323833121
0.5473946772080459
0.532524703201741
0.5284519292135138
0.5455796571095648
0.5585841687808275
0.542164130720559
0.5394261571987184
0.5513728730612024
0.5501073595552605
0.5278050100248816
0.5107319436112847
0.5353867765928635
0.5394919845359555
0.5185757067679189
0.5081921232511131
0.5065728240855247
0.5163117481231498
0.5145302118582278
0.4971804822317676
0.4948765372273633
0.4982671725201411
0.49892941495183407
0.49128194927108665
0.48620853884468634
0.5088263155803938
0.5098164186556701
0.4855014023048686
0.47454755823848005
0.5018787551739284
0.5062672998720339
0.4956596149240594
0.48275100299227897
0.4927576602008078
0.49343849846380783
0.47793653272189
0.4856418591508437
0.493524521180529
0.5101624955572915
0.4936203126455016
0.46961590134998954
0.4862919756428166
0.5092731509566443
0.49877256132681536
0.4816344439392677
0.4814572458029243
0.5055368670297221
0.49690148130917694
0.4873445042186744
0.4893990090391641
0.5020124236994183
0.4990323052955814
0.48889650991506484
0.4856999293512511
0.50743792959998
0.5143189495507619
0.4983488512505299
0.4837546433246806
0.496545906170961
0.5065053357249563
0.5057157240510217
0.4948709850631928
0.5050290205155424
0.5033138683957464
0.4957975508436078
0.48838311259184286
0.501350128777586
0.5148744223704298
0.5088081527915145
0.4925498856763911
0.5011294148939359
0.5257247914509275
0.5554164205086964
0.5616610204807996
0.5613798703250649
0.6003216140045348
0.6143105192354467
0.6056585992061327
0.5868533629252031
0.5755105525453131
0.5782616983818011
0.5379905973516298
0.49479690951938593
0.5030872412651386
0.5173669461948409
0.4963553724781883
0.48339408829292624
0.47692801507857807
0.4926504286009295
0.47943835017688485
0.4815476251011536
0.48129774177535056
0.5049973913874541
0.5008919668405357
0.5466215153639188
0.7399382450563344
1.0
0.9898875917846965
0.5170034328411823
0.06086056026733102
0.06432570474764825
0.2904408982852178
0.4123402110986893
0.5050775124659908
0.5243479650144021
0.5271847724049626
0.5248152598827943
0.5287401361806738
0.5594463956181432
0.575156610071918
0.5675201925642978
0.5510606676149599
0.5641608621556778
0.5949510004598273
0.5944304831694769
0.5870513399794257
0.5976295801645539
0.6141742460632135
0.6147142241829932
0.6313813503316321
0.6416168289975275
0.670545003867702
0.6750847401218685
0.6698863086099912
0.7000632384896377
0.7576961741218851
0.7873863433759106
0.8056507406845034
0.8294053834714914
0.8690035674912917
0.895288149475979
0.9202132314932973
0.9385043519607873
0.9696413173090337
0.9755721074258623
0.9574213340297539
0.9353182716533766
0.9256183873255915
0.8842977670522748
0.824740155027033
0.7479241087558203
0.6894666637709069
0.6700470667751904
0.6290459548019326
0.5927614909466363
0.5755928692165572
0.5684248814321818
0.5496192637784457
0.536156408449772
0.5374557679628562
0.5544913967487267
0.5499797046238084
0.5429535478575924
0.5329659298733389
0.5476695748026337
0.5510898517345227
0.5427808709152042
0.535448405542051
0.5532668979645965
0.5608411825833539
0.554790955144676
0.544973262495742
0.5561105179483297
0.5557375346380229
0.5343774646059842
0.5288691323865404
0.5275712601467633
0.541174227530398
0.5257955720351133
0.5122922755561822
0.5013839902807741
0.5149659023803964
0.5099521681047887
0.4952921621772905
0.4929751732885504
0.5167063389985705
0.5031592982366737
0.4939584112109811
0.49610789840406133
0.5077379914158088
0.5196982004935814
0.5035662829303609
0.49206304062312717
0.5077498484920363
0.5201466955196505
0.4941306070824968
0.4834782503585336
0.495464795076699
0.5022138198210366
0.4847602770795584
0.4908387834515122
0.49857921628551843
0.5190921732841712
0.5110267385042594
0.4870985587595188
0.47938699910684274
0.5131261264195175
0.5008145895631126
0.49356354729198787
0.4842413764441048
0.49356557964800835
0.5022883472766159
0.48879679660527653
0.48556116294289975
0.5048533239344292
0.493281728208619
0.48145276552005456
0.47850188952292994
0.49538784506590827
0.5046324733218024
0.49254032945608905
0.4790509027038355
0.4895121234067804
0.5101603301460583
0.49444891739534996
0.4820592909929782
0.4843736550554138
0.49730545701128126
0.49925798749014216
0.49024688935330607
0.4934717129712934
0.5115230874391146
0.5009175143961071
0.494776691573635
0.48318114125731465
0.5033135937658118
0.5107584054740506
0.5113488759747983
0.49446935478944243
0.5119720857428203
0.5372033123370697
0.5439500384562312
0.5556699550567311
0.5935760548261811
0.622060612302047
0.6185517688006902
0.5861719710469934
0.5670622759600494
0.5731287206730198
0.5417815935738297
0.489701119229491
0.49116479984198474
0.5057023255383053
0.47606305550859307
0.4539763942073264
0.4532575784412722
0.479537360125169
0.47049097392897743
0.4592537949134142
0.4590133855864666
0.49117033438329044
0.5101972202248881
0.584496551192227
0.806866487282111
1.0
0.7957455335092506
0.24118819757497406
0.0
0.04952612410415576
0.25947083610632393
0.3723957432825338
0.474185633051362
0.4970571121755681
0.5152442970558744
0.5174581449900835
0.5182547965253563
0.5164436998684819
0.5383854210159534
0.5513767658201377
0.541779411890561
0.5415519746470188
0.5682468707622669
0.573846431321311
0.5739465749682601
0.5648021083939615
0.592420523483685
0.6091215768984154
0.6073982396255713
0.6213404078413074
0.653405621078398
0.6744372637812901
0.6870065779390055
0.7104632142842191
0.7542189922148032
0.7896551927252136
0.8224207291758491
0.8506296240709125
0.8961429759822614
0.933203343192563
0.9317371162977007
0.9342361792356663
0.9684523825776619
0.9771738471869792
0.9470489135786627
0.9004726146945087
0.8468840842422425
0.8088533559796872
0.7452268396025337
0.6722744643115697
0.612623677171791
0.5880859160845877
0.5613172601008672
0.53712697530893
0.5243528433135756
0.5435789707160537
0.5358989773745831
0.516749979001575
0.49790704331574337
0.5205499513093879
0.5301303355211837
0.519629960831842
0.5153499437181999
0.5230288794689012
0.5340898441225443
0.5290887557624961
0.515408555395197
0.5223949310199968
0.5289903192060946
0.5184068846173244
0.5024541737210931
0.4934000981145402
0.5135972386449854
0.5064249112566429
0.48857061966841914
0.4770612097304202
0.4985517863414491
0.5024652727157499
0.4869322621969506
0.4727016285647509
0.4799390020028892
0.48288752709147664
0.4739618638533213
0.4607307030463379
0.4599931484555307
0.4647300415296491
0.4570035586455802
0.4449463431706503
0.4620456423983961
0.467698065560424
0.46065542065971066
0.4491617131873456
0.45270438977514776
0.47123886200377035
0.466695084928313
0.444070325726417
0.44360417655413054
0.45940921804271495
0.45697749263545456
0.443597788570888
0.43392203108365085
0.4571882689259392
0.46086695863689336
0.4535173130321577
0.4457214897329435
0.4629290037933525
0.4761546871513283
0.4620389659766482
0.4559211766547476
0.4688723854553287
0.46267405568397024
0.46490222320094005
0.45846357336053795
0.46859911252435626
0.4896118529087479
0.4704246128984348
0.46649701052160353
0.4747128948688334
0.49282643289690764
0.48957652671309837
0.4831284832320491
0.4815616535039863
0.4859951164162946
0.49355810609815426
0.47506260903163006
0.48235705460001965
0.4936046673734908
0.49685975738553667
0.49619898225998516
0.490847957367097
0.5392333359479758
0.5713416519685287
0.5617140702009668
0.5712733171741393
0.612473458409607
0.6222853539394527
0.5946962863842703
0.5670112684571275
0.5777105542407543
0.5565954571292735
0.5208891225739944
0.4854738069463888
0.4928802345391657
0.49412683548821396
0.4770811199233938
0.46696329948108184
0.4741424312445702
0.48121354893375023
0.4888908082052102
0.47901420474619566
0.4858774381731755
0.5238616612568079
0.647766512676945
0.9284253713515793
1.0
0.8885415687423922
0.3038891161809346
0.0
0.045415306389385
0.2619030879445502
0.41177191856685286
0.5072834816850861
0.5236601831347814
0.5272512320218439
0.548548880362101
0.5499585532006871
0.5423005430486294
0.5616956264154933
0.5752226442018313
0.5848352302687008
0.5730159460484392
0.580178816074088
0.6080336732143676
0.6225340712769597
0.6076842820651515
0.6164558489112839
0.6307334506123603
0.6527150487913652
0.6551024286444578
0.6666170456521618
0.7033212075306186
0.7279351591232398
0.7258839548609208
0.7509600075585636
0.8095853668798471
0.8528805975052023
0.8830079968638241
0.9090461272441676
0.9499020612549927
0.9904334590291715
1.0
1.0
1.0
1.0
1.0
0.961474470470517
0.9071309713621087
0.855853862725709
0.7883029308928673
0.7105648848807784
0.6563479386464268
0.6349953184841155
0.6127504661571999
0.5822603661172786
0.5565907765091868
0.5607457077423899
0.5580650871799221
0.5447271929128774
0.5345843365604568
0.5452597359944414
0.5541786813284955
0.5427369056652512
0.538624097378775
0.5495507434331816
0.561237392610432
0.550378981922205
0.5357028817507624
0.5480364141356147
0.5665551994883496
0.5697415304378226
0.5432799534267103
0.5413746056078469
0.5469074541507798
0.5299965527921782
0.5194007324153508
0.5081413186101095
0.5248426910634425
0.5111771780443621
0.48691585643632795
0.4854952889247198
0.5057830882182783
0.5171416258850698
0.49969436453132776
0.48626318741681107
0.48645552105727796
0.5037960949882876
0.498102120542988
0.4906685212775943
0.4967575203334208
0.506806900072056
0.5015076491901382
0.47593777481162025
0.48376526112619106
0.5040665389790637
0.5021942953118043
0.4889723666674956
0.4816927085663102
0.5006028038571133
0.5099969626606355
0.5042754738698874
0.4801494061287842
0.5067979037592121
0.5151079387554749
0.4921633068683974
0.4889209946023332
0.4992243448832995
0.4989704943673381
0.4933666596568992
0.4702112691033051
0.49913237531458304
0.5132543387235158
0.5074779615490714
0.48893333752825646
0.49992339701505717
0.49784302992635876
0.4900151001177095
0.4841605208669894
0.49201086368912533
0.5013902488228528
0.4995769246553251
0.48926720956009406
0.4891040292669027
0.5065240411130685
0.5099975712315905
0.4935495918444879
0.4767721648489185
0.4953984767333618
0.4997679912617321
0.49612273170702326
0.49020264240987316
0.505616235923543
0.495573333899949
0.4748536170183476
0.4816200107573626
0.5078007856974285
0.5381663104140583
0.547907957342824
0.5580887075440584
0.5717850996827414
