MLII
0.5
0.365101848104681
0.5
0.36510184810468094
0.5
0.0
0.06316043246212422
0.2892259600898674
0.41448673548575454
0.4233084541197093
0.4383882898094315
0.4310252386626739
0.47794281355925416
0.48334351807725884
0.45969207862460404
0.44854551294291783
0.4499263294421305
0.45816300148835704
0.5
0.5116315559255774
0.7767694867352702
1.0
1.0
1.0
1.0
1.0
0.2529183842357093
0.0
0.0
0.0
0.02527788687201147
0.050819983040137816
0.16494745630468124
0.33726201028018243
0.45562005670425787
0.44811822001897195
0.4900502482158915
0.4579765544621245
0.4525034246443734
0.5678956317706527
0.49524298893442087
0.5432577559930207
0.5121793733731081
0.48119865003717327
0.45882335463775714
0.4353262971386287
0.4245570287711029
0.44219378228503736
0.46534052089977607
0.4238196860808333
0.4111869936912248
0.4236934969033815
0.46946684453410803
0.3713287364798653
0.27270497981482716
0.3043109114425061
0.4217785578194298
0.4543329275290783
0.39060714090090964
0.4324762405237331
0.5045002133294372
0.5419631742634003
0.528337283906788
0.5459116796160878
0.6226282103414158
0.628930592249265
0.580942907550549
0.5392609158362338
0.6336205770344292
0.6195697903397495
0.58226990364973
0.5810897615313024
0.5954049974455419
0.5935854095008246
0.590576892569066
0.5591656660515217
0.5158114321859516
0.5839634801405233
0.5824908558016746
0.5817215534658706
0.5603684436314522
0.5043478313715197
0.5843357036122128
0.5586073571630895
0.5
0.5930365978654768
0.5951520621907913
0.5063089103677041
0.5606789492020515
0.5758242149705175
0.5533296252736308
0.5409369476170874
0.5485021410515656
0.5879740230015861
0.6029691636083515
0.5424289856029786
0.5742194448994746
0.5677408188328191
0.609449977319751
0.6089891254932011
0.6270044169827024
0.6965164485203623
0.6702293152865122
0.613775828059264
0.61770771368118
0.5941462348720615
0.6656609286975479
0.6835237876316256
0.5674845150707811
0.5676235316763343
0.5736415544221692
0.5026467108657174
0.4578377594295926
0.4751907734842529
0.5310479519821675
0.5194044006872545
0.4942326557762021
0.49987736345473816
0.5036451027159364
0.5456588379348905
0.5622332451775524
0.47033386112172854
0.5593328759151256
0.5493361341437982
0.5014126795017247
0.7053501869429601
0.8540480966409877
0.8701502598720132
1.0
1.0
0.5953984816928011
0.1842218998754154
0.036894517577404695
0.0
0.0
0.0
0.0
0.052999733888634194
0.16205418413246928
0.35857927091007114
0.44754171935307474
0.4237481947985495
0.44766719773804675
0.5194827012105324
0.4644325160842017
0.4617531525183229
0.49958734770247143
0.5004376451024667
0.46780566391251677
0.479692927708203
0.45137975274633
0.41668388791377947
0.4123107377871732
0.43231473999628445
0.42857373743569516
0.3795817174161725
0.3681023502447798
0.4411062306013533
0.34827967553117756
0.3754205826695365
0.4354770227726207
0.37686087185452166
0.4030882985660229
0.4233069775514574
0.4315932327008293
0.4970240031502279
0.5351217649118544
0.5054135339075531
0.5449378680528495
0.5570208525193634
0.5799642370326008
0.5666217218215712
0.612606710817607
0.5681992957648426
0.5495142945384139
0.5839724231074
0.6133386284712139
0.5772267624353121
0.6024637112020127
0.5459450128220272
0.5535724686788512
0.5681803868675359
0.5362515329861375
0.5175043000735884
0.5252740053829362
0.5704053806925635
0.5667330365078392
0.5449583765487874
0.5245960348989797
0.5685774035665105
0.5307782417823479
0.5434234330813646
0.5262791301272264
0.5438059699276967
0.5863487969839766
0.5434499697523232
0.5611915945830434
0.5745073664096938
0.5646686721579796
0.5423888911061896
0.5726422475339359
0.5524304448608838
0.5232139389866196
0.5596957592388766
0.5643456978023413
0.5717536558103263
0.6035301366703543
0.6238479669570132
0.6381436678793719
0.6410188685670629
0.6237756853625219
0.5787330329543835
0.6490585201485557
0.6553025058330082
0.6327657136325813
0.570735366496468
0.5218999820259131
0.5665042647900763
0.5368712519491169
0.5162220382505329
0.48893925438283314
0.49429321324262165
0.5321235040506579
0.4972988430809246
0.46954281111291063
0.49130962381344034
0.4906254990180683
0.5201694366920647
0.47832568455650415
0.46915460196229974
0.49141280776303997
0.7261043515965715
0.8466656949511127
0.8301872772516518
1.0
1.0
0.5674490759476595
0.09424734894626771
0.0
0.0
0.0
0.0
0.0
0.032794617893066744
0.17466248304811832
0.37096944626659656
0.4219197865032944
0.41472865850472224
0.45121629438162125
0.5002964586911658
0.45537395339551556
0.3876375131935538
0.460417176302799
0.5130450176295405
0.45704731736707255
0.3914912570359186
0.407863707324549
0.4037248652227737
0.3614697260700364
0.32552678640501165
0.3626659038288988
0.3837059193952759
0.34942110942591376
0.3062665127731063
0.3198469319082607
0.3817857410961888
0.3711947604090525
0.32708701031281606
0.33155072683486814
0.3799459367249381
0.42080619520214874
0.44483139076938183
0.483990594630034
0.44623440604552467
0.45744661505300044
0.5791035778622173
0.534002653893619
0.5234513442195153
0.5107532745275349
0.5202366800472752
0.5184638499669708
0.5078024381948582
0.5018418443368471
0.4625570683696688
0.5498986908248227
0.582111800795004
0.4857559571977129
0.47360894758440786
0.4883130695867484
0.47142289292754896
0.5113363248454406
0.5348511443930326
0.48001108855482066
0.5148755886111885
0.537400868184984
0.508401676913212
0.489874087755814
0.47134414031444855
0.5120834242102755
0.53906440211896
0.5325969690920691
0.5185131633756981
0.49728240184450795
0.567724958238736
0.6109350900477881
0.5266962088031585
0.5192679356236324
0.5351712709908912
0.5129615178869092
0.5385804004845753
0.571358340246594
0.5669034447960624
0.5953435427806345
0.6237068583520311
0.6234365630842402
0.6318837822642035
0.6323804313250175
0.5675074470192387
0.5801261747908736
0.667990285087469
0.6643827784011977
0.5216152256451763
0.5254042931963178
0.5588656352150053
0.5342595047364369
0.469279240307262
0.4409086956534991
0.49601157053262296
0.5006749390022242
0.5455038635298253
0.5571870584265937
0.5372250337638387
0.5209879475591574
0.5183952381097214
0.4777728807209624
0.45067566282047034
0.5487907503602801
0.7602548716282405
0.9363719326640952
0.9335134976012978
1.0
1.0
0.7147107766725082
0.11575127205066087
0.0
0.0
0.0
0.0
0.0
0.0
0.2186439405023312
0.3823817727662295
0.4083177067749067
0.4464843847786272
0.4508101034336741
0.4059913593980277
0.4667868656719441
0.4526395316168558
0.42201046748465076
0.4186291627629162
0.41389232964042144
0.40300138163993815
0.38323231475662667
0.3672677003779302
0.35986803082493957
0.3403096879454302
0.3202423620453776
0.31940232389297735
0.32122495738209145
0.2836098836475715
0.31755301913381484
0.32508872871746913
0.32100334448335877
0.3421947668103537
0.3791247310849917
0.38239779092804055
0.4140311512791036
0.4490210760701726
0.4876322301774321
0.4732658776943697
0.4867266439360264
0.5190228685008614
0.519609024190788
0.5120370854727969
0.5152324140828863
0.5103548653040874
0.5049163914950305
0.5043054741863598
0.5051399019532977
0.5010983785742603
0.48249109137309765
0.47932528396612445
0.48210492833108604
0.49708226697193736
0.4967758186086816
0.4906674713841763
0.5057886957151563
0.47414624513978537
0.46706616416282404
0.46626910249921094
0.46376654268571277
0.467453498813658
0.48026986461882737
0.48134301086499365
0.49301747648610644
0.4939722518820047
0.46835325968685904
0.4448238012254725
0.44610286444980013
0.47085683794672784
0.4632540249873937
0.4768739728860794
0.5
0.5250867957880565
0.5136942017192082
0.5091111939004552
0.5199561728889409
0.5174916174905497
0.5453519399389217
0.6092112266230224
0.6085447291481815
0.5687577840557663
0.5465192273238045
0.5895856265991206
0.6105377197721713
0.5869274227406713
0.5510802323320094
0.5209014944878232
0.5051214744834831
0.5083343588294921
0.4921270184257004
0.48821232463384767
0.4723087920797382
0.44796426946847634
0.446754843875998
0.4545112020901395
0.45795737808195913
0.41711226878478547
0.38411942182591413
0.4326066127855176
0.44308766575851555
0.49658601777685496
0.6953199887626874
0.9494133113117591
0.9874808142333571
1.0
1.0
1.0
0.4901620459209971
0.01219618409931984
0.0
0.0
0.0
0.0
0.0
0.0
0.22346743166568897
0.41508701246488366
0.4502056954809343
0.4440342535582921
0.49124603273690787
0.5043010872276306
0.4846598304864364
0.46943047674106786
0.4829403552816734
0.46634437023795544
0.43791387845449076
0.432159092999229
0.42311223600966025
0.4189053106112162
0.38221513839258325
0.3549018136541574
0.35564591047849137
0.3500726933696212
0.3428584775762177
0.32113306401300334
0.31188330344606136
0.33107718995866114
0.34417947884231204
0.34485007246177507
0.3664942814092528
0.4092954308624896
0.4247638271103192
0.4434675304798311
0.471896693917779
0.5001118485019391
0.5243004533132054
0.5359461555111257
0.5438959858391123
0.5659248816532573
0.576866329338295
0.5705351580111104
0.5621222610367911
0.5679982091412991
0.5799515304940521
0.5700434462534725
0.5631542038433188
0.5642236460894955
0.5723619241885788
0.5614191851758551
0.5562379033424827
0.5567429192779383
0.5692826630153053
0.5612903992459186
0.5440290426486476
0.5560995130814106
0.5721754392480721
0.5686519405325022
0.5591565536421529
0.5592755626643217
0.5779369711840916
0.5671625605781843
0.5615289450205525
0.5619195612392387
0.5733940728137281
0.5790446550478012
0.572085798344504
0.56250552761092
0.5820827733287227
0.5897460312817142
0.5914070390466541
0.5974201796170475
0.6167370538512003
0.648394874429286
0.6476124202764757
0.6729605167094835
0.6870924522746756
0.6868663226544107
0.651165583928089
0.6507227217349401
0.700653210331379
0.7096801461390445
0.6520836599631001
0.6164215739030419
0.5938570604241025
0.5898028780549339
0.5793538185221626
0.5646422523038618
0.563912153372587
0.5752584512916324
0.5765216296093266
0.5733409562738994
0.5764697246817502
0.5814669147192385
0.5837833424164172
0.5603651107839471
0.5400723749581341
0.6551373567183567
0.8883760590739446
0.9404239729371049
0.9074037915836293
1.0
1.0
0.7143517340252524
0.23396885016650965
0.09786370491417902
0.03330192908456242
0.01058254009733437
0.0006856382353821466
0.014526844306515496
0.11817815922994965
0.3504086122308154
0.5224907732939501
0.5512321991589335
0.5695535551686175
0.5827504229175376
0.5679288681328181
0.55126372471088
0.5497107349368281
0.5575163477990046
0.5308994818412766
0.5010454996363877
0.4937825703620843
0.49740056004124006
0.4717969099192449
0.44750240681583964
0.42142593915218907
0.39831383451375474
0.36467642121534183
0.33067833776124067
0.3126627561215659
0.3431593189624188
0.3734125991322773
0.4166217993843537
0.4573086161598616
0.4964699797890081
0.5244549804897252
0.5405172021190437
0.5418565045701161
0.5650448253795564
0.5804290711200984
0.5756961735087986
0.5748127395143628
0.5940196283594881
0.6068114576196597
0.6071998523416337
0.5907131441692369
0.593425639549058
0.6074990971854917
0.5978737385714503
0.5754961391152722
0.5691799968480641
0.5795285866711184
0.5741730541334625
0.5573049574148089
0.554823615542378
0.5599536723656418
0.5571714164605897
0.5611102798067958
0.5621128134756106
0.5713503110868503
0.5717007176358669
0.5568674427505905
0.550646674891745
0.5720753160002928
0.5770636819932167
0.560341349995223
0.5595529504777053
0.5661721052552047
0.5744351908463887
0.5709219662704713
0.5697193419244353
0.5925625053246444
0.6104802105698314
0.6188974798256808
0.622343883044296
0.656044476704262
0.6823454314394781
0.6547640916604991
0.618858082766738
0.638496759680956
0.6847964622293149
0.6531345797644373
0.589747753354634
0.5668800749627102
0.572743842580214
0.5489372256534326
0.5296626487141971
0.5250479304079939
0.5395160122427953
0.5514080079736116
0.5333499777888642
0.518625918724853
0.5184921078287055
0.5342377967467107
0.5382184471786247
0.5218126162198787
0.5105754955071805
0.5725485628145439
0.7461678434613802
0.9392185540113165
0.9401048950939572
1.0
1.0
1.0
0.3369422659470607
0.021053833256849508
0.0
0.0
0.0
0.0
0.0
0.1669485652998624
0.3813389287452639
0.48185054153867635
0.4963735871770828
0.5035464313375715
0.5097996291116751
0.5120752019438567
0.5085865642003639
0.5000615127107987
0.48578277181795093
0.48132267324119915
0.4735697476825079
0.4647949782030875
0.43752874140986514
0.4253612743362852
0.42356278670253494
0.40295555636093444
0.3723743930050915
0.3734274830908647
0.38246577735118625
0.3831187741076585
0.37454447383701056
0.37233573727962777
0.403153669981847
0.42488250992203047
0.4424248978647622
0.4576711251276143
0.49898391235328976
0.5194470618053539
0.5324122893940726
0.5516741035954604
0.5588832324806596
0.5722594902510016
0.5755904576383483
0.5685752846281967
0.5684876721466136
0.5779081186536967
0.5768205925495489
0.5739196258429808
0.5612139494293376
0.5698587227964934
0.5797533236606318
0.5639149489582248
0.5570463170730837
0.5596813690250878
0.5622579257873027
0.5503449711329311
0.5577326028688023
0.5701789105088755
0.5676978204574944
0.5605570658809991
0.5659280611051278
0.5763837605953379
0.578716610875721
0.5695988000694914
0.5704425917371585
0.583810430794203
0.5915634694198026
0.5850086111261351
0.578454372337203
0.5889389775543536
0.6041599543032105
0.5978474337689332
0.6052986225871365
0.6266876335629905
0.653801527707732
0.6570352447033349
0.6552964053975069
0.6776027654507933
0.6840981549408646
0.6514422857704497
0.6265674979364821
0.6336828724177197
0.6543449899033906
0.624928778627496
0.5690287966202421
0.5400232728643488
0.5341499905557373
0.5317150614708386
0.5164599610248906
0.49809432909426626
0.5070325302001646
0.5176749064227161
0.5103225862565234
0.5078507985932952
0.5154954872223471
0.5360294252703708
0.530514315091812
0.4949554201054238
0.5266346644591567
0.7275773594812331
0.9226266672428334
0.9275053222076218
1.0
1.0
0.8133948108251785
0.22596653749067666
0.03957542198774329
0.011149582550142423
0.0
0.0
0.0
0.08205363614039696
0.2907555116409946
0.4423009854222947
0.4661119480787958
0.47710785960699215
0.5034418195734767
0.5077687667496621
0.49233705731347144
0.4916914780269974
0.5036262664083313
0.486370782296708
0.473185677917641
0.45998973295872025
0.4591326821181624
0.44615764381927014
0.4260922723093197
0.4097403999818769
0.40996469800352003
0.40766479467923594
0.38597924727494587
0.3719295624902855
0.37641006170646374
0.3889530035348243
0.38328394483204736
0.39252970167658935
0.418780864494965
0.4497146433352805
0.48393438746664047
0.5014327647994314
0.5223216186615334
0.5496803985588925
0.5584302032130235
0.5671009799027962
0.582520423802878
0.5986738126561846
0.5986903504509961
0.5985697620899308
0.604515792113469
0.6128856759436745
0.6047216312141277
0.595073204825485
0.6008855232536379
0.6091676224173903
0.6009731557408882
0.579647934407342
0.5829284702680189
0.5852255099147227
0.5781961319458541
0.5543485210754346
0.5382870018918765
0.5438138661320722
0.5575642374130745
0.5423985105428417
0.5383854523206713
0.5388162031340061
0.5442351763653738
0.5451314786576784
0.5309569183718496
0.5334888617050988
0.5404400966530407
0.5370524225929116
0.5271704113115632
0.5250317403961248
0.5437924381444124
0.5701845863092245
0.5681354787826641
0.582886837676435
0.6066489056961225
0.6320333042750569
0.6399156756487023
0.6167924688248034
0.6071403526539815
0.6185782092859767
0.6381008406565268
0.6376694819729913
0.6092800955386567
0.5759825176323041
0.5446048162032437
0.5180749253614334
0.5257147812634303
0.5348574053909447
0.5206568764693824
0.5178234937021287
0.5115864834407831
0.5250282048465232
0.5218124459961245
0.5056204750055606
0.5065117990053978
0.5275483090129793
0.5203146789055774
0.5020958526925969
0.5590372080711368
0.7725890093748846
0.9247202433561842
0.8991100767367272
1.0
1.0
0.8366361152836062
0.2429151759000136
0.027168376967256068
0.0
0.0
0.0
0.0
0.07852681112867063
0.3115268598830422
0.4433245739503288
0.4602791297409426
0.46633582666830015
0.49540456271619754
0.4790803664200432
0.47152452647004256
0.47194567110348074
0.48844152945684377
0.4660434147429986
0.440065909302034
0.4347475287518311
0.43033488806602155
0.41472553282451524
0.39792343037908123
0.37380964302566416
0.3725264174397537
0.36894561940925036
0.35824792431178887
0.3453924735822228
0.3591661860599878
0.3816066384998079
0.39478597697302414
0.40342580267991845
0.42544678025753485
0.4642149210065615
0.48907598700983834
0.4947260512237957
0.5185365015930327
0.527235295522255
0.527191538011429
0.52621440347868
0.5372625895107829
0.5475817057990701
0.5530445731990213
0.5416695806359584
0.5317616141944507
0.544017531830729
0.5435806140168659
0.5354313066415206
0.5200729022713744
0.5321292144025771
0.5353878383674313
0.5230277547852247
0.5102425085334891
0.5182617809120363
0.52812324444635
0.5222132150752121
0.5244143486165377
0.5243444754779791
0.5258558150634066
0.5272829694046542
0.5281434742473008
0.5345894360206509
0.5501060227372613
0.5342035005089086
0.5255715281910229
0.530238747874008
0.5440019345824364
0.5518618938629765
0.5487673022808568
0.5488259385018923
0.5747638587720145
0.5913334237083416
0.5875743206403108
0.6043129783198558
0.6364956142422022
0.6208586497211023
0.5919269125768716
0.5958204621000049
0.6296110480073869
0.627716240352784
0.5780685465079446
0.5491670578683945
0.5394699048973153
0.5294239023757699
0.5205884938396286
0.5052702810282392
0.5126224684875895
0.5223398051755258
0.5115457570393779
0.49933830006721447
0.5069662634318235
0.5154399738825575
0.5172700468212788
0.49483968876338463
0.4880009293315517
0.509530539825327
0.6685863595945741
0.8616666328239265
0.8783421939808825
0.9530939584934828
1.0
0.8717844810442296
0.3038244772297672
0.12391432954913632
0.05752302279437336
0.0
0.0
0.0
0.0920788251465928
0.28905380289374555
0.43740109955920053
0.4523380732063667
0.47883654727051195
0.4950336719451244
0.49385519724198224
0.5005202788556466
0.4891857341386707
0.48719223526981426
0.4811397879887457
0.47449403871720747
0.4747034088173159
0.4538054249935561
0.41913802654905197
0.426242965197224
0.41865616538338857
0.40175541953267285
0.37686527245176615
0.3676193536028952
0.36190805914581253
0.3749469964869048
0.3739752160032768
0.37108414107057236
0.391844361591438
0.4296491818400199
0.4462899259860064
0.46043546902853416
0.49144046390257506
0.5226947412868371
0.535301875309638
0.5349606223992792
0.5364885786751049
0.5615893915831318
0.5600754887950249
0.546485146664627
0.5564693277673378
0.5672153552914467
0.5706058669293174
0.5490137553860728
0.5458655681937097
0.5539252602883449
0.5529850316541974
0.5371777271223838
0.5207592491745568
0.5219810310708961
0.5376675215406392
0.5615887451182446
0.5076001943223865
0.5193411803908763
0.5443168034702656
0.499490477543187
0.4946762682392973
0.5001830938464913
0.5223448260500497
0.5158403282602507
0.5090543428437442
0.5163101832885494
0.5396247108977683
0.5372520768312379
0.5351015992119933
0.5518214417621916
0.5853925454511775
0.6033678122099204
0.599357864609334
0.5829143513801446
0.5998306267332082
0.5882470749633324
0.6005938915015168
0.6121565647697205
0.5893326609962539
0.5437186189612886
0.4948394178602295
0.4966902274463815
0.4891944770493259
0.47972771893406263
0.47276365805643084
0.4655860927185119
0.4775826657609337
0.4782450812891378
0.47136918868646305
0.4498638627379992
0.4399633179916188
0.4565974228007228
0.45627701100903356
0.4282650728964055
0.39467905681984294
0.4367798901603188
0.6018822229214227
0.6905540020600863
0.731008265783246
1.0
1.0
0.7374321291838287
0.24885042007617844
0.08752085534997818
0.014837764339756365
0.0
0.0
0.0
0.0791541852965377
0.2738506833703398
0.3875071812890295
0.39541861626268354
0.40702308574790064
0.41903181834489195
0.4152892817401358
0.4220662671829579
0.4258514279799345
0.4190014267142993
0.39441461422031987
0.38030115211232096
0.38543274693000573
0.3658398348767474
0.3630452575158761
0.3324155229187177
0.3150030716599038
0.32981881353690357
0.3236085166287844
0.3016746227464438
0.3024257142834131
0.3122310468006913
0.3211373776671868
0.30645274633513236
0.32366119547916206
0.3573077766488658
0.3746549516894639
0.3866040380334387
0.41582804717895766
0.459940583634903
0.47905587667330296
0.45418361554626135
0.4533303783150292
0.47426733695516055
0.4915485403041508
0.47358667767510837
0.46680395762325216
0.47717047874467583
0.4960168245128256
0.47385880535246194
0.4287213548731749
0.46510364760839007
0.4745444917304874
0.43344947749719387
0.4515984130779075
0.467793606295311
0.4468099668750015
0.4274195345160853
0.44622670315933954
0.4537103423267899
0.4466738164848406
0.4309966282976675
0.42833974614781195
0.44220392713142165
0.4367182431703638
0.41808566152777915
0.3835039576356281
0.42204960625983456
0.45352110577189125
0.4096228824399545
0.41230044452817644
0.40335056465620706
0.41502073309574755
0.4313232533990153
0.41210087894344694
0.3963567609066236
0.4132669704303466
0.4158470992222851
0.427827723389911
0.4355409248883301
0.43236031505766626
0.45335855694228516
0.475644731979068
0.49822340516742825
0.4965506225292839
0.47703866334804645
0.45801021487374804
0.4833495742372951
0.5060249458443066
0.45542060144096724
0.4092334469881207
0.3920380872435917
0.36914355293066003
0.36563771058707006
0.36404533850426174
0.37394705062921796
0.34013605264427166
0.3530859834070216
0.3738326713379713
0.35239537283962485
0.3452655483642979
0.37088119998267743
0.38208680010126506
0.3246937680207457
0.2954703905128336
0.43202098383998316
0.6515005324356271
0.7014435466988755
0.7183722382629433
0.9399735884207876
1.0
0.4640022494540673
0.0
0.0
0.0
0.0
0.0
0.0
0.01838321937846077
0.19292061097202312
0.2652897434979099
0.26921988972893374
0.30892105226601635
0.33116724384935764
0.31485020855013346
0.2885320302578678
0.27698353039236284
0.30930444752113406
0.2897227533840358
0.26821745248713846
0.2751528658793105
0.2575421288022432
0.23546143031892455
0.22157182754987095
0.19369741346543243
0.20297121248096284
0.213027353778187
0.19590064993059714
0.1881916066026153
0.21469169111852437
0.2116121319588526
0.2075671240135634
0.20952593497776456
0.2723801406091128
0.3126698326537446
0.2790435990592185
0.2972795308604654
0.36723659029144284
0.38457327160779053
0.394135802802903
0.3775840220943164
0.36727554875641
0.3792678069890642
0.3848237868939692
0.3785806610050246
0.38024062294980865
0.3969630441952103
0.39704077887097955
0.3810820137473771
0.3793477597757108
0.3916734040064889
0.3768251995222037
0.3465973567558928
0.3634853274520644
0.3869842166037203
0.3661468163357643
0.3506203377860292
0.37091631478101034
0.3784965805174101
0.391137196764057
0.3958795467336117
0.3525856647898843
0.36019653383843026
0.3819930191887197
0.3910167541677046
0.38910371023709783
0.37761010109273363
0.3843025847254696
0.38749818243039696
0.3944272540328491
0.3827060745278327
0.3915884936191141
0.40172338683208436
0.3985315828633512
0.39851892749407286
0.42186276582328774
0.4024617994688312
0.3936893808386562
0.42384233841953434
0.4479464716560996
0.45484020639899425
0.47557035714560325
0.5003021362994429
0.4973987568208641
0.4648565223384745
0.4702637131971734
0.5100101947118816
0.4983528628411477
0.45174079443641996
0.4166900728197609
0.3986333717785099
0.37657325717156026
0.38730734759400887
0.39411217488706474
0.3770627531413487
0.38199514141024504
0.4123797610170158
0.3874529771853205
0.346796335495364
0.36411894923766075
0.39943115936893137
0.3875691052241576
0.36398378415513893
0.43804145870153344
0.6716738228204957
0.7539868643732646
0.751472225753075
1.0
0.9127997662662798
0.321844666768741
0.0
0.0
0.0
0.0
0.0
0.0
0.0
0.1480717098370449
0.2835134132166337
0.3163432280885249
0.35766438666612776
0.3861644108944106
0.35952620690659665
0.34201762353582144
0.3600494307960666
0.3627156830527687
0.3526521022287147
0.3437677117998641
0.3403179658606206
0.3277472570602476
0.3127948338318949
0.3016965208870063
0.2740241203402861
0.2614565704594339
0.2679679590731082
0.26682534962420446
0.2530280275150637
0.26783583431144803
0.273072657560747
0.2607013248248881
0.28157281743828727
0.3152025420537511
0.34460953435553954
0.34538219353140137
0.37498695407010035
0.3924154228064108
0.4251639552625714
0.42760227305485443
0.42292282118793684
0.4399551138792471
0.46902025554157634
0.44940178021527455
0.4301823994110799
0.4477442174404057
0.47011085573561634
0.44824671147326695
0.4236855407122723
0.4352338916656045
0.4499037515619535
0.4416654006164215
0.3987179026541174
0.4086910709431096
0.43446195592571274
0.43012358956124663
0.43068020694882836
0.42254852741069
0.4222737954054031
0.4364642819053682
0.44309006656017597
0.43109347012476346
0.4282229892919176
0.4373296579675836
0.4319270047783098
0.4417085454771053
0.43225975523718735
0.4563507407356823
0.44374145672086734
0.41885895699090697
0.43388613257322806
0.459098743848145
0.4587090719216942
0.44892113613401835
0.45707620376370317
0.47764491751880583
0.4878493774574918
0.49718601348681357
0.5380722738100733
0.5514301475461267
0.5136895881558414
0.4961698017576259
0.4988508151065437
0.5463785341073101
0.5375033532579204
0.4889351979448843
0.466193808443065
0.4469232374554382
0.4589057071002335
0.44390106096882465
0.39610924287130517
0.41230704183130323
0.4351587923905626
0.42259368864996183
0.42144397357657865
0.4080528297348557
0.42679966842838735
0.4502312563166904
0.42605400356586465
0.40280174858111917
0.45660736318618406
0.6580383181426374
0.825349027494062
0.7957755620223247
0.8966139694325234
1.0
0.8096399754852133
0.21552863654309462
0.0
0.0
0.0
0.0
0.0
0.0
0.14230373373446045
0.31484167523853174
0.37253245894914605
0.3774708019324001
0.37208106969857313
0.3836870092465895
0.3972675374048652
0.40916886402988323
0.3903182841674987
0.38315986481757486
0.3804996073409529
0.3846586287241972
0.3586797314899486
0.34542853492528547
0.32190482098037804
0.3082103844350424
0.32625135695167656
0.31005433887458556
0.28022770315820855
0.28414074351824453
0.3078120085232357
0.3052633208106643
0.28514014223528505
0.29942379277802333
0.3417495669115995
0.3533192884811571
0.35998054805797375
0.38976095339221695
0.4245776377801345
0.4542331068071331
0.45148273543443407
0.4470341860013252
0.47308057489684857
0.4744938972293575
0.4595266185484054
0.4728092108594195
0.4825163983604545
0.47023645806626313
0.474951458594266
0.46893389493265836
0.4619341271320594
0.46967389466038306
0.4628906198296042
0.4582133840749589
0.47072250206494426
0.47385484351962537
0.4638623316659608
0.458673272904602
0.47542109259912674
0.49151336185939326
0.5017387029224831
0.48446611725389566
0.46874201703006396
0.4890291583860694
0.5037426998640314
0.47331812518218064
0.4745018960296902
0.5031596049292619
0.508262755325157
0.49817284869957057
0.4985425082961843
0.5175084643819262
0.5178209235313913
0.5130050074827224
0.5227137358878783
0.5449276085003542
0.5691885049298162
0.572595069866802
0.5770950708539564
0.5985242336809591
0.5733591643338707
0.559210153897958
0.548261864510035
0.5744256791297258
0.6118405821274886
0.5967967755391559
0.5372017418868431
0.5269894061909537
0.5502999748909939
0.5199500297528884
0.47483551142594027
0.47901429239281584
0.5047256806180183
0.4934823104876183
0.4801019316202109
0.46735117785895464
0.4869968614916994
0.5023370835806648
0.49162350287318207
0.47603902464248715
0.4733573566198498
0.4762348628530457
0.5752720454448224
0.7378810433806708
0.7837913043154784
0.829121110889146
1.0
0.982782993499639
0.47173200221328526
0.17456135432746658
0.09642179542746562
0.03760896169200976
0.03579809594167003
0.051547428841714815
0.06548917256789721
0.186716806204361
0.3318384190279585
0.40710484788185053
0.44491661663845694
0.46022818010474803
0.46544119821747876
0.4479772908255996
0.4507806246020576
0.4550615782990797
0.4497069861092644
0.44179637743306605
0.44673744407341864
0.41897950541782814
0.40677534346919453
0.4013029082119018
0.39054351114486996
0.37777685666030536
0.37061629778374705
0.34822019008359684
0.35483454948261256
0.34710639977940794
0.32802634974326433
0.3364504646093687
0.36601093894089126
0.3877768826997238
0.38541007686111106
0.40657805780201206
0.4499687189090948
0.4630689356623063
0.47845601148389116
0.4994781892746606
0.5085184707141629
0.5253599292714087
0.5322256321959952
0.5107189550285771
0.5221592076598823
0.5484712998774898
0.5186792050782912
0.5060167489330067
0.5140349422430907
0.5275545534980224
0.5337985884890845
0.5187991247048569
0.5105262644949019
0.5149692485514723
0.5155051594443584
0.5122850241636856
0.5240032368560357
0.5327472083550602
0.5346315841093834
0.5192937619561832
0.5153710576740018
0.5252761147722171
0.5285719764054541
0.5217703349601623
0.5367495150856613
0.5659636254278453
0.5739914334716563
0.5721306080230149
0.5733942308512718
0.586722561805306
0.6021981328110882
0.6049423394603254
0.6028079459571236
0.6253993867629977
0.6450314836122205
0.6430198537830973
0.6497940951340375
0.6800507624391428
0.715134976816357
0.7090966249637546
0.6610212172394647
0.6471518351666631
0.6826332396167623
0.7203348252577957
0.67387188758963
0.6315125711677937
0.6332825694820313
0.6333288864980938
0.603375623964489
0.5897456758859112
0.6105891979078516
0.6198242453979579
0.6214509598401898
0.6176084954982566
0.6282038656455603
0.6260627507386427
0.619026429239935
0.6150869378453138
0.6066472303408198
0.6219571320096848
0.7679245608482024
0.9019127220130144
0.9284044559724489
1.0
1.0
0.8678736041314645
0.3970789603820311
0.26664749129805976
0.18420342883740354
0.1326955084415345
0.12576342546492492
0.14415874358072403
0.20047737966333842
0.3254439458738224
0.4716744751204341
0.5514993086441787
0.5582631106881799
0.5651574568485923
0.5733085538810825
0.5787675962391625
0.5828605040238204
0.5708389867284587
0.5558726926299247
0.5633423542276973
0.5656791959182498
0.5442811012545271
0.526240067127904
0.5076060471613557
0.5070361309900002
0.4935235030981754
0.48120866116923217
0.47537481181617797
0.4709725803317399
0.471500311085525
0.4633304439597671
0.4601118386388799
0.4845785512652956
0.5197878861289397
0.5319849549208345
0.5546075760270004
0.587015310573699
0.6091111592885525
0.6179300160596306
0.622979013032164
0.6393836957767439
0.6517113710488978
0.6493444805575713
0.642168535597311
0.6536353083310429
0.6622640336038756
0.6594343783712859
0.6355272730651255
0.6482069059178268
0.6596083427990989
0.6417363324963956
0.6248554460785828
0.6163088723871614
0.6239762493466038
0.6305392823193557
0.618061430357257
0.6157408007341127
0.6316597413589584
0.6425526084317773
0.6221848853491877
0.6097491160394709
0.6274949760350073
0.637799904641619
0.6297041951478197
0.619580374879414
0.6291566213731272
0.6248933940964989
0.6200588685183323
0.6110119370115072
0.6216239083856934
0.6367502695405839
0.6312604714160359
0.6255082074855146
0.6342592862380525
0.6555347109095975
0.6617748222198349
0.6551386903538423
0.6585890393569839
0.7098502983283325
0.71577998109645
0.6796133443065913
0.6554959248491016
0.6920954982650984
0.7107077589834054
0.7040968055451635
0.6735538372506421
0.638048953404316
0.618529086746593
0.6004906140740838
0.5794951512180218
0.5830620758772487
0.594948054178073
0.5957448549224936
0.6019227940424509
0.5953684945654943
0.5952811706559725
0.582977857773827
0.5765602547773915
0.5886933408600169
0.5916578697861522
0.6140442718011558
0.7410960468797285
0.891811182905856
0.9028759347133395
0.9665079959749947
1.0
0.9515528035924936
0.46327328409710733
0.23781970845310293
0.1847946401582708
0.13977767977483793
0.1300130031482653
0.1385165152112852
0.1758093681240495
0.296907398110415
0.4911811745530633
0.5619646510735985
0.5455676536979845
0.544569024968307
0.5648954985298218
0.5705693880597037
0.5720193673770061
0.5562693311989901
0.5568071597277381
0.5479849064830666
0.5320244375869729
0.5225544480937965
0.5055717395916501
0.5037757377992378
0.4906155968410365
0.4697163169116684
0.45586203366610534
0.45820661215121505
0.45675589066669336
0.4481371031745242
0.44601859991113735
0.45204553458348895
0.46812312857563976
0.4747030017081255
0.4960675406880527
0.5138027971556076
0.5394103020935075
0.5623821513167555
0.5612112900513153
0.5682766771697257
0.5788111715080249
0.5874329061102198
0.5865683690714519
0.5947305248967073
0.6003136755969182
0.5995987694744017
0.5875571211880856
0.585074770503976
0.600033573427103
0.6041590395088768
0.5782155669849635
0.5778895498251411
0.5926061125148436
0.5960146766759529
0.5704615631596279
0.566637764975363
0.5786043688907856
0.5686610603701965
0.5691534588709193
0.5661256485886895
0.5714832265895708
0.583483444489336
0.5779199110606701
0.5713183404136648
0.5892571629048546
0.5945464563956129
0.5926964200643821
0.5793678460136997
0.5908856332058892
0.5954914032155934
0.5972980424459988
0.5977393852085138
0.6203111726760934
0.6355344361156325
0.6398778936819298
0.6422982132802871
0.6417045909825303
0.6339411503548587
0.6471078435685411
0.6591316302908354
0.6197964681162471
0.6049865985274507
0.6015564750669247
0.5735452906352497
0.5433196955849636
0.5489075931830804
0.57111641318787
0.5597349174598147
0.5313369720303525
0.5226478165360278
0.5555432119165958
0.5679370916005236
0.5498920111547113
0.5598926308101047
0.5443215125800542
0.5278080344084307
0.6565073626840308
0.7831816279720376
0.7780373409515043
0.908865561973547
1.0
0.8269303100920918
0.39149575739562265
0.2433610156939628
0.16206056692374493
0.11031262718298969
0.1346477943527818
0.160619542168073
0.21068359163578707
0.32157683886509
0.4717458038321697
0.525295045926059
0.5298385796582894
0.5413347654728474
0.5302592591092653
0.5428111510826787
0.5268388859677096
0.51867264219487
0.532999981918129
0.5366169586695352
0.5162000740849191
0.4878362859488895
0.48101030066976885
0.47235536563515595
0.4790926031617726
0.45653968625897523
0.43649596271740554
0.4509313643524332
0.45912504039196805
0.42728211746707234
0.4222950718226303
0.43982369363652574
0.44301258234133717
0.4710282836397095
0.47667419305349046
0.47602218775468
0.5253082569575955
0.5408431643031884
0.5328790700088597
0.5316589178984849
0.5592481873570281
0.5811354286948869
0.5743684701184797
0.5666806668627163
0.5861813388150214
0.5884199609929952
0.561385493948063
0.5610340666969579
0.5667137030699175
0.5773074259814865
0.5718171542547419
0.5478207409069118
0.5478754598600365
0.5480984326696825
0.5401904320319597
0.5325335334999511
0.5449923419587288
0.5617619615755496
0.5522652508423536
0.5372181013838521
0.5465545079259584
0.5658033015490713
0.5448746183017088
0.5416506447070476
0.5539732241212434
0.5718808834945557
0.5756228313181884
0.5470639075810332
0.5484877758426768
0.5668450904430016
0.568802553243246
0.5754602525902216
0.5891563891193227
0.6163571043619742
0.6220146173866637
0.6250792608503909
0.6377554822815192
0.6321990693220368
0.5964029989106685
0.5993886380794464
0.6159968899331171
0.6141542925212062
0.5920900928819999
0.5683631169245247
0.5443394912609494
0.5246841684837921
0.5258388382815311
0.5280371077761031
0.5286402541651394
0.5215346453768938
0.5128591232500044
0.5159603825461595
0.52094243257372
0.5103201344320042
0.5389578170636724
0.5086205384349896
0.4792737634027606
0.5308508664089875
0.6821029943814556
0.7466954308874763
0.743445298646753
0.9331414728175179
1.0
0.6941475195695845
0.25259202200616027
0.13454334550377345
0.08044537282285553
0.07049607210486535
0.08196284695830239
0.08210054999664855
0.1555144557224232
0.3320217338665283
0.4454850985406698
0.47340652562855184
0.477769260551118
0.49959545131675
0.5013545847656019
0.4871708685571906
0.4839864037327454
0.5002287650657908
0.4942341552747756
0.4701013637895036
0.45708712181620603
0.4601770110478661
0.45340030508113915
0.4337673607568953
0.41622179462620623
0.4069955022179149
0.41027829661346626
0.4008956349041296
0.3822570264502083
0.38834204444084514
0.4026568168080894
0.40470710666137377
0.40923312962810127
0.4226412098444395
0.4473603445901796
0.45924736776842456
0.4780023353854853
0.49885494869850006
0.5089595479018493
0.5205710567368593
0.5190493963384009
0.520856731283718
0.5353878790894806
0.5393068348862398
0.5163797651482854
0.5207609418923684
0.5269837057542694
0.5204566691198393
0.519523604269377
0.5067776757008219
0.5134487188136795
0.5197064351199496
0.513129996508803
0.5054555270515753
0.5108916276208934
0.5179887949149263
0.5126256623339687
0.4957956692698269
0.5045204213656599
0.5157900757016677
0.5144647510497202
0.5160001870323434
0.5146814319556504
0.532838525041857
0.5578275849521439
0.5403977701522862
0.5236246564401902
0.5369423233628163
0.52745254494896
0.49846405513923264
0.4960683029880567
0.5090418107452255
0.5112475380580331
0.5062701816292206
0.5101793335828202
0.5278703353870866
0.5621168632304417
0.5897027246238159
0.580310178747155
0.5626279760174524
0.5595615316598608
0.5750828076087855
0.5731761514840548
0.5568266744602637
0.5214021686568118
0.49999804527638664
0.4865651079364854
0.4763180284744479
0.48351421284253426
0.4820949648157404
0.47162379464937476
0.4722160244212863
0.4798866699294325
0.4674072177016019
0.46725000703247427
0.4717994641552812
0.48055505404370613
0.4686106858549327
0.4539272281819958
0.5358329545437714
0.7190192380026389
0.7901282764865595
0.7874962703779006
0.9557889902780466
0.8405202809456552
0.303074754885204
0.029395588602576607
0.0
0.0
0.0
0.0
0.034899304243115915
0.17229954920382395
0.33965007887764964
0.4088032222641701
0.41364360850908266
0.4241203543618147
0.45140830979360835
0.44691101655019205
0.43405459318234635
0.42888515755389295
0.4379625448892188
0.4334047444137149
0.41485773054968417
0.3926232804550877
0.39509022047252373
0.3980586360118863
0.3703232856937853
0.3507451503701711
0.34500054192847307
0.351540455088336
0.35092789034344046
0.3484668458129018
0.3432894704861348
0.35841685295133585
0.37322562155582373
0.37103538121058444
0.39907666528500574
0.43142284204710696
0.4445707872351581
0.4510190935471824
0.45567620161807837
0.4811613766727326
0.4836670970285681
0.47887649472090954
0.4826419097983775
0.48893423328624835
0.4932924729812644
0.49036852176425405
0.4821912424434963
0.48318228570522087
0.49013834705488024
0.46840437831722886
0.467018097197311
0.48475974986776355
0.4790652798673575
0.4706394681220861
0.47420753517309117
0.47884312113863786
0.480156831726418
0.475493438075167
0.46219917726051063
0.46985501765643234
0.48612116049494747
0.47354196946740484
0.47292992846749327
0.47014226868660397
0.4766971801924266
0.4878912168887224
0.4834640682442811
0.46822088515555826
0.4793901990816476
0.48726411028989913
0.4783621590580955
0.47455367195462744
0.49034685561151814
0.5070934104447107
0.5057735421241283
0.5074697443994038
0.5258129459839757
0.5666526484817561
0.5595146985945649
0.5133448902554505
0.5072497768529348
0.5533797799572318
0.56445166525821
0.5147135150549318
0.47379059178982424
0.48268331472189663
0.47401195721317524
0.4597284418859336
0.4505141395276414
0.4544144863397445
0.4501362333593081
0.4505976236529716
0.45066990811174035
0.4541297580279222
0.4601041383524163
0.454139818135204
0.4439422280286135
0.44641350012680475
0.46027693532981956
0.5851028364759444
0.7400245100244598
0.7632521646269704
0.873627013681781
0.9764720409476955
0.5959267862475668
0.15941885875675804
0.09825920114691158
0.0548448867273561
0.014679022215796778
0.0
0.01798213233495538
0.16448787110096158
0.27376874072015356
0.3709877825586356
0.4373956017315595
0.3980194657684049
0.41172678422606684
0.4063647426943125
0.38759810616270973
0.4388049838388749
0.43594639914294814
0.4072672341602298
0.3968129625459539
0.4332464486070644
0.35751027018468734
0.3332438934142532
0.371528751036891
0.39004851985631517
0.3259627939398885
0.307017918968618
0.35055694555553657
0.2655330129233071
0.29680066679896533
0.36134259480721537
0.3223914989292214
0.38925832385775416
0.41192586331188225
0.34612268910843963
0.39909569010200097
0.421070092724323
0.43939159840136116
0.40004666144791984
0.38701350519409394
0.4631856192569589
0.5451991204962903
0.4867331230598976
0.41139078962862696
0.49546435755741697
0.5028894858378032
0.4228557200055393
0.45575390446421593
0.5010453061260329
0.46775634709152103
0.40128416932025585
0.42972342221172405
0.43123692756718224
0.44162899504336667
0.4570266475256542
0.41425719376048614
0.442526182844771
0.4318033506559834
0.4145157240627616
0.4354150217234595
0.4416803144810285
0.42503535433793455
0.44110206013595243
0.4408624367666757
0.44709742933053953
0.46924379412505896
0.4344738938100708
0.4435682364325462
0.47230781937799565
0.45083128786682175
0.470947153493669
0.4839530427230823
0.4579529117124834
0.4752037385101774
0.4986462913502375
0.5142968920878614
0.4792686596275441
0.4716825784220955
0.4799705867906818
0.49901072869440355
0.49907875457082584
0.4654881310249701
0.4370528704412939
0.4343990999750195
0.39725470898325704
0.3904632207370714
0.40571900091612817
0.37364186613220784
0.3798425798203834
0.4017602878466393
0.3717735981450308
0.37677612364604507
0.38680085898327493
0.37715948527715615
0.38512411920415807
0.3907407659785017
0.36723818379977363
0.41176080772722284
0.5754240128868165
0.6954259789633157
0.6967611329711446
0.8193001622763745
0.8670991809181647
0.5357686897118448
0.15820074579410237
0.038285084061523644
0.0
0.0
0.0
0.0
0.0
0.16639160569757966
0.2935373289253418
0.289902950279176
0.28640331123843865
0.31668909373178944
0.3185499325153458
0.30764148676109526
0.30524044139816386
0.32340140422982805
0.32876141895249733
0.33806055636623195
0.28267563875295926
0.26757197271627875
0.29946221965531744
0.2646061132048132
0.2494743698829586
0.2504291959266861
0.23977550889043062
0.2396122944086899
0.23430592099527536
0.23426709903648962
0.25574811978098166
0.24455251722683674
0.24694063102151595
0.238822655773212
0.2841318660772549
0.30565275927078184
0.27029696358662897
0.3058260318623328
0.3333190863344083
0.3252003147988499
0.3341029508451335
0.3667557222893235
0.36706207280855596
0.3596051509966799
0.3653638730326102
0.35156032529015563
0.3726850483568801
0.3859598952762571
0.36394256789460344
0.36658998984962227
0.34649342898165997
0.35305253968999983
0.38215330481183474
0.3687575172489207
0.3507279361865452
0.3655977185931021
0.3675568836294724
0.3539359820012597
0.36409720653703503
0.37935572319756794
0.3654582858122903
0.37048566184022536
0.3750831299558303
0.37565512278267
0.3674488413937767
0.35720905461372227
0.3688316423646321
0.38892241890099777
0.39229251679689503
0.38259219509735676
0.3701088452114358
0.3970070317889049
0.42440936542473606
0.4106076633465072
0.41111627764134884
0.4372236901396748
0.4516490328872136
0.4426762328199194
0.43149020621282685
0.44336473084163686
0.46913138418820777
0.4711492580436497
0.4163228323263114
0.40848087553679663
0.42515655361331267
0.39648254418323325
0.3642611713903498
0.3886870484336108
0.3962254437168694
0.3948594628523939
0.41158898646073644
0.3975589773025606
0.3975180379841549
0.40780068373629613
0.41112159086556294
0.3807103219693266
0.3836867771517008
0.4917583642945102
0.639502344590291
0.6835276044194908
0.6830982510337718
0.817011285146167
0.8068623231570804
0.43628131955530636
0.1857269077596976
0.1489169808559395
0.08315666060769562
0.06550989795527987
0.05523817531077766
0.07277208415849028
0.16183315628868633
0.27988558328106483
0.3654731281559015
0.3754799676523371
0.4002574051248004
0.42595775498968846
0.4044627232369102
0.40687907132107204
0.406733361189485
0.412442320277936
0.4174228243579215
0.40005546201719566
0.3870082234732264
0.38097951104017647
0.36536016943513305
0.3646875162151023
0.36115771755696413
0.343756931562329
0.3533545681622946
0.36763308266465994
0.3475799232796791
0.3488657147036901
0.35385547575805615
0.35932360092945614
0.37601901319836195
0.393465852600927
0.3930751196009575
0.41749753254273203
0.44331020411204564
0.4451839435461381
0.4593940616107141
0.45988644078074853
0.4700476391471578
0.47108312856191875
0.48266250764834284
0.4769857893248813
0.47245945877287765
0.48296069844137096
0.4826917123790004
0.4787340564968961
0.4724616168842909
0.49207634727735944
0.4884064198266542
0.46546607620716074
0.4697277214389339
0.4771918272715924
0.47414861062316555
0.470360818086057
0.4702526973553243
0.47813147674350576
0.4832877529313177
0.4798504025040818
0.4751781944368859
0.48572571789316327
0.49769251950611954
0.4892268336103001
0.48224061681857744
0.4892628475878382
0.49023526816371366
0.48424846897312585
0.4938048923200184
0.5069068564967169
0.5266931327508042
0.5265197901999962
0.5350621055715468
0.5535374540428579
0.5507615069523026
0.5312523830200501
0.5195338561368461
0.5467339025960467
0.55432139059359
0.5278304670311036
0.49641330439999976
0.47817195811865953
0.4779861803122687
0.4745419380075296
0.46627328488315545
0.46852674090009827
0.47098476984003346
0.4755437779406589
0.4675747516300368
0.4668340372986683
0.4731218100214728
0.4843453212927608
0.4622345440404456
0.45579685724699115
0.5253751394277304
0.6760750754656746
0.7331761513156676
0.7435389286482146
0.891765894797883
0.8466727345298773
0.4447893188129721
0.2074497638239372
0.1567340344906083
0.13145225800913968
0.12196219609801492
0.11536589282296976
0.1503872883153826
0.26513214696923054
0.39858290519412887
0.436140333445449
0.43440087392315424
0.4568005595661891
0.4672645483276579
0.4474603108587874
0.4394388708736409
0.45080352919546807
0.45669862938882727
0.44059566364363256
0.4245022418711402
0.42418894232014936
0.4242753148277603
0.4156651561400492
0.39564461240444093
0.3874874456929603
0.3876777470804901
0.3856973509730931
0.3726384577847073
0.37553833266778547
0.387166442939307
0.38767469634958174
0.3942398404114195
0.40159503747224734
0.42534449156783083
0.4434083306999462
0.4468127915276547
0.4645033194648085
0.48235038529648666
0.5017349494823644
0.5006786419227407
0.49614634721358736
0.5015785488218131
0.5094186395319118
0.5043195943302867
0.4980477824940433
0.5030895896596475
0.5118871199073118
0.5113102030267219
0.492482348410401
0.4999191895698947
0.5086568004563436
0.5073457084414843
0.49554950117804963
0.49238956675004697
0.5027976958886679
0.5050168189129102
0.4990376766218638
0.48925163059138577
0.5024717883035855
0.5060921893450437
0.504033927199247
0.5009818838887504
0.5073387376508599
0.5144594478153783
0.5096913411367519
0.5011694652852177
0.5161995943003759
0.5270161807935986
0.5336396354095088
0.5377241978369522
0.5397985966260885
0.565058377707229
0.5821231027795354
0.5663684939232414
0.5512703990092523
0.5606429094772643
0.584405322777735
0.5739685128974703
0.5340369489974364
0.5208029838417282
0.5124796593824235
0.49147111986822367
0.4755259972696482
0.48872058079298253
0.49084572929409476
0.47892972696694713
0.4760578552117417
0.4876335158082747
0.49455064120373404
0.49208580386364636
0.4877858275899311
0.4899693549087566
0.48421946545596456
0.4835003760497649
0.571048933028107
0.740142150913214
0.7877874327348446
0.8085942976930445
0.9816537882694458
1.0
0.6307717370940068
0.31344448120027407
0.21464245693015335
0.14352671133044073
0.11580659668926305
0.10066001981467187
0.09927930630324085
0.13844917681776078
0.26912905126180403
0.4006915882213856
0.4404869548074464
0.43329929629743286
0.45544832905866245
0.46941961903146456
0.45315573234851614
0.4463555015706701
0.45320874335250527
0.4555910227809929
0.4492971044649159
0.4415894433738251
0.42656645418245526
0.4199183586457359
0.41084596578220484
0.39073258809290856
0.38714003632975164
0.3833689006097257
0.378312199650671
0.3695932044896292
0.36261362293690635
0.36941641180704876
0.37165169135448795
0.3695193171515781
0.3851098945043136
0.4111518355692049
0.4250766929766304
0.4360514079371698
0.445576398565542
0.4693772764191154
0.4980481211861843
0.5004840528614185
0.5052262156458697
0.5100375386568573
0.5163493985792975
0.5184928395220795
0.5140748417949214
0.5169839049569303
0.5213120368797164
0.5193118196075146
0.5077771677550051
0.5116726819396337
0.5206047820660882
0.5136865516777868
0.4983858235646995
0.4895738418559172
0.5007453517078413
0.4967400128691585
0.4948609228847857
0.49208038733982856
0.4991137458231202
0.5015715232901068
0.5024493541823646
0.49592670362438895
0.5008684915070131
0.5111047976164682
0.5008862120780824
0.5024460175302764
0.5070426246839639
0.5204751594530128
0.5306379387182522
0.5320250226198171
0.5469948633882201
0.5586501719201682
0.5687608526856013
0.5837563563780346
0.5924127327334874
0.5872891604344121
0.5662278984756892
0.5685093662036991
0.5919538041016639
0.5837263550301383
0.5426820944699197
0.5181946920137025
0.5025969895238463
0.4933911872802231
0.49481819632254725
0.48467368031717745
0.4811627380852264
0.49327680649684147
0.49746997939306975
0.48754068389771243
0.48569462154648047
0.4933176558986142
0.5039349675926086
0.4823781357932059
0.4672262593888335
0.5409940185713106
0.7059010465737512
0.7797711363615374
0.8072915539721954
1.0
1.0
0.7312385524333846
0.3429346695138277
0.2358372377375205
0.16468939074986064
0.12188237832834573
0.10719459536337599
0.11536530316071239
0.19334826741553496
0.3419405391154884
0.45336921180388956
0.48430609099541827
0.49914606015483365
0.5168267834471645
0.5215091463661004
0.5209803707214216
0.5170978654842724
0.5182116081895538
0.5057451771706732
0.489824768886587
0.4824025027677922
0.4794719396317492
0.46016014670701477
0.4438808880967974
0.4377194448929906
0.44275873197872145
0.43413690112963516
0.425504143707187
0.41559787273399296
0.42967721216008564
0.43724311283975686
0.43069297512180355
0.44597287763053395
0.4712605256752453
0.498191542721686
0.5109822237224872
0.5152268037060135
0.5401598484432065
0.5603343300965239
0.5656861470630883
0.5634614572347467
0.5770992362417315
0.5871286457386723
0.5820754880643408
0.5746021484566566
0.5776650839173921
0.5863850574965572
0.5833359114772978
0.5698009874290801
0.5682526073183938
0.5704820559928574
0.5709904340202647
0.5628446290862131
0.5578491531191831
0.5673292127380762
0.5713527513067038
0.5616271833509416
0.5602953083228537
0.5724819513068979
0.5827538522291712
0.571253312904162
0.5620741945486856
0.5626013449383456
0.5710414535656441
0.5681054807887944
0.5731111415170211
0.5739227057315315
0.5880061542250367
0.6027722490673626
0.6048351782742258
0.6162593919312503
0.6268399979477529
0.6321634152402245
0.646906301431921
0.6370628614249287
0.6297253439129726
0.6329548478504112
0.6529495994895236
0.6428816804922608
0.6065795698834648
0.5894666475650212
0.563069996159157
0.5494527911708103
0.5549238615379021
0.5470139318774034
0.5501054798421268
0.5428993026433211
0.5450096998746903
0.5413087924933166
0.539311330791215
0.5358275359597516
0.5295789919230615
0.5433749812438141
0.5366496494711898
0.5437514873629705
0.6626168356381397
0.8352625533923957
0.854017884133089
0.8653138888039914
1.0
1.0
0.5468215670423935
0.2360386195275014
0.16545534053672162
0.12472597983508335
0.10938136847513573
0.08991718830513333
0.1065181383461546
0.20733636443571157
0.36746942310323316
0.4749600343506669
0.4940544147405051
0.4988465016746596
0.5175459417106729
0.516224077242011
0.5098009139506317
0.5080746839569137
0.5188343838006826
0.4997760036338996
0.48469066938108185
0.4688774642488693
0.4691860402947463
0.4560463542232315
0.44168987413491545
0.43451144849501766
0.4286879036445135
0.4242670107356883
0.4120978870046967
0.4080272842775585
0.42174027778513795
0.4287457274777277
0.43078602505979147
0.435236897682012
0.45905923038573715
0.49027437277233454
0.49834864960803393
0.5042653806530492
0.5249250651490825
0.5486666356396551
0.5508115025089388
0.5486268606299384
0.5528882730422672
0.5709738581687419
0.5701292577537301
0.5651330423245555
0.565806872660183
0.5833867747667973
0.5678147788372557
0.561049487003374
0.5656050224067386
0.5720202152815779
0.5654787349896224
0.5536022692546593
0.5482469794213254
0.5672880801547688
0.5662940148476046
0.5581570910094407
0.5513588976920887
0.5612709123634867
0.5697890063317843
0.565358474630475
0.5559601731499371
0.5665677670138832
0.57233801810757
0.5608018243821887
0.5637434538395574
0.5746265941989709
0.5773607301104231
0.577489101255918
0.581193962133554
0.5927563639132213
0.6168319380317995
0.6152007891489685
0.6229851938106843
0.6453250515562126
0.646447179308767
0.616511398198431
0.611006852905885
0.6409891235961938
0.6514726178661985
0.6175232891313318
0.5848356074822718
0.5705936428493699
0.5555612420827527
0.5575897838662349
0.5594640275246225
0.5401346092780102
0.5396960650353652
0.5508092260879647
0.5512770276883325
0.5390469872870162
0.540945968692953
0.5504507084490634
0.5398680466815907
0.5247204015890267
0.594876704369077
0.7789540250135568
0.8415143415093518
0.8368950023656634
1.0
1.0
0.7449152698829462
0.36806910753599287
0.26456251689442045
0.19171697195158915
0.1466075162638269
0.12128231516982138
0.12447762967905156
0.1961250204755302
0.3539144168806733
0.47715323802373855
0.49993400408917366
0.511924163418304
0.5284167222346963
0.5230500485093221
0.5216942615535852
0.5192426699021542
0.5282510788222189
0.5157095447712235
0.4986950115077583
0.49095288821401517
0.494067595417132
0.46477334071177534
0.4486410962898611
0.44280720554392106
0.4491451193525524
0.43955069184663265
0.4225402634434718
0.41625096877518086
0.4307480651202756
0.43046222902141196
0.4304659121099351
0.4372127410560722
0.4637302258599087
0.4767759732339084
0.49734089970375256
0.5097991512033724
0.534115860422602
0.5562004317894913
0.5578587805849413
0.5609674870797079
0.576649148892524
0.5899541612225863
0.5851482757912986
0.5785765915425942
0.5791574527943405
0.580382376025828
0.587869369441177
0.5832919676365362
0.5759371445618753
0.5829913984551892
0.5866230939724422
0.5692431903377175
0.5600055876267158
0.5754429608747653
0.5742607120160798
0.5576598647802352
0.5556774786954424
0.5620951131508831
0.5794584660030836
0.5690673165702489
0.5551874518130955
0.5658828845343603
0.5717063493204242
0.5750755641400053
0.5710565061246223
0.5662951955440694
0.5738454284238663
0.5751779698841093
0.5802920070746984
0.5977657799698943
0.6123594703454319
0.620230844845401
0.6224314780039528
0.6428272644312067
0.6648726318558744
0.6531836450065054
0.6217692034057561
0.6218701233056476
0.6521325540011956
0.6608626034247448
0.6113136494969772
0.5776762707658579
0.5810932363674499
0.5741591340713541
0.5578195631600448
0.5485195975231136
0.5549454522315797
0.5624182004769789
0.5534001299869378
0.5422465444385369
0.5484084552159236
0.5558941549174149
0.5536199054782978
0.5470901162471219
0.5448135753786572
0.5283017478412166
0.5420726505838983
0.6600958864685778
0.794974265083633
0.8142891457755127
0.9018216489490236
1.0
1.0
0.5328226532609632
0.27784372431757254
0.18307123162460207
0.10323907160245235
0.09305379711853963
0.09738736766147005
0.1268553335326666
0.25290403561820307
0.4227946562615001
0.49528911842532153
0.5093991222924958
0.5165457248290876
0.5245249055357731
0.5389288099223417
0.5346592112722658
0.5226921559599719
0.515169955764355
0.5112987621872243
0.5063615797088034
0.48337966457609555
0.46723561884575504
0.4687225909473729
0.46437603925515514
0.4368175869308648
0.4358416409655401
0.441214521878815
0.4344447988799785
0.42740478588271713
0.4360331169269568
0.4505314639427437
0.4627841819814865
0.46908670596409785
0.4780282123178706
0.514616624120401
0.539145175660471
0.5462423088508876
0.5555572513628328
0.5659960835855318
0.5911858806147359
0.5947070974902263
0.5896538373660491
0.596139633158862
0.6042233451034289
0.6014700979568212
0.5907833774704917
0.5886311359603222
0.5910266778250132
0.5902267209460633
0.5784775000275367
0.5771929675365571
0.575919458422946
0.5819921898893974
0.5780375717573651
0.5703757433864695
0.5826444449550184
0.5884390468812838
0.5760055570947763
0.5624339949393972
0.5714645676055122
0.5878318693611793
0.5817691542763292
0.5778894820797611
0.5815962350853886
0.5806182373598052
0.5827059275208938
0.5865063268014585
0.5889394153631105
0.5995620241010081
0.6167090797280022
0.6259721114895427
0.6278728931751366
0.6611242741348918
0.6758181097269317
0.6510890748879391
0.6243771780782953
0.6428732394325563
0.6789926426610402
0.6577520951091309
0.6110315181146309
0.599705746110981
0.5917147021330332
0.567467316007625
0.55836651324152
0.5630416444831706
0.5683052652669597
0.5597065671589654
0.5547641816607657
0.5595510518612883
0.5692200241124584
0.5621951719910439
0.5528024971548995
0.5507336114193289
0.553002524804242
0.5988593726147097
0.7595307463394592
0.869611010128407
0.8715945809186142
1.0
1.0
0.8838581990780046
0.38546468658988914
0.1931502986243138
0.1157762661983203
0.06664973874596498
0.0580911982813717
0.07301177554299336
0.12657109365107191
0.27373617281961626
0.43576326643013275
0.5055567196863306
0.5156517620005968
0.5175223941277738
0.5221618852834913
0.5436982161958333
0.5386776769126173
0.5251550024902233
0.5161667059993503
0.5239537287174147
0.5049093239239434
0.48406446606405346
0.468612795274021
0.4740177996462519
0.470797383375266
0.4425332865376328
0.4268025862796006
0.43731534094117597
0.4413968104858451
0.4286076923248555
0.41944696399477666
0.43719816798990274
0.4569937823584772
0.455021885624855
0.4722316871476148
0.5109437752473188
0.54019127040755
0.5502574546725147
0.5597009709078677
0.5699465160300968
0.5840146392619696
0.5926812071172213
0.597915218349872
0.5908939632834566
0.6034627497673143
0.6066321856056041
0.5933400632365324
0.5895453061888647
0.5980317107134171
0.5976937002131528
0.5899274673286359
0.5821589627509975
0.5844158688492327
0.5849124435035538
0.5762941505307511
0.5728173286986283
0.5746752402921308
0.5847573858279193
0.5776843336221962
0.5737160066364374
0.5813309107494197
0.58847568486048
0.5801408336825122
0.581064914651066
0.5830453767449891
0.5936404981559844
0.5933826519247505
0.5857782201929248
0.5865377711204689
0.5918368483854388
0.597429482821919
0.5865326216059166
0.5961084135206807
0.6150641600023209
0.6279278011995042
0.6276809290978662
0.6310696841253624
0.6610645392816665
0.6787556424719636
0.6550146498169788
0.6179687453813314
0.6360042041767794
0.6821679652292296
0.6719063351149638
0.6212929891238955
0.6051548808839488
0.5965795350508886
0.5761575955191395
0.5674857327978332
0.5704044142483895
0.5765971522417126
0.57215669041477
0.5532758512791618
0.5588499336973134
0.5696569805441399
0.5716857013807302
0.5657550403776246
0.5646930263644598
0.5549755530394476
0.5498675801556457
0.5991910345225362
0.7604853923679366
0.8879131132152367
0.887166506928003
1.0
1.0
0.8078871561256061
0.37266275597120957
0.20846596658584562
0.1312599250325127
0.10421164012384954
0.09860132309367745
0.12549782529693224
0.23109470471853782
0.4033153465847047
0.5018063991958119
0.5218676165742557
0.522853410258675
0.5444314014485404
0.5542592729855961
0.5443434986831048
0.531314985281316
0.5246927568664319
0.5220614780514985
0.5208821148432189
0.5054104365040821
0.48687472428435735
0.48387186120116965
0.47546736024833214
0.4579779516410003
0.446705795379237
0.44394666360176044
0.44365082615616924
0.437630882287743
0.4316273026905482
0.44278433796920585
0.45240947166085244
0.4613210645774176
0.4637479913468888
0.49162183868135906
0.5238295346747208
0.5394630629871534
0.550775926472126
0.5619003011065883
0.5876333074714284
0.5984718948992223
0.5940348996777363
0.5893131306361346
0.6087778791055791
0.6143382556179615
0.6057090348291816
0.5987089147038801
0.6062047572602044
0.6079575575767315
0.5977651716698367
0.5959428117820107
0.5936419461237472
0.5914620710619232
0.582239560234394
0.5747954963520998
0.5861519831508893
0.5916527316982736
0.5883894749986665
0.5799595062998328
0.584564691832771
0.6001897096035577
0.5946353026391249
0.5824750365600033
0.5847554581235308
0.5934936667972579
0.5905905499479763
0.5890420735206436
0.5801104451322845
0.5940313554390919
0.5995297588723207
0.597747479787003
0.6052139360760455
0.6276251590899052
0.6414413668340357
0.6401012374142965
0.6539451775858268
0.6814500785975589
0.6725096918779881
0.6465767610284612
0.6239690488871326
0.659993711369472
0.6856404693695917
0.6428043812636031
0.6008188139037058
0.592782610626565
0.5877152345518445
0.5759687487297042
0.5672360447865623
0.560575851428933
0.5681068483588246
0.5646749891671808
0.5540530977726249
0.5563520927104582
0.5644006708433974
0.5676477094965893
0.5592205529213483
0.552325601118297
0.5551976072080902
0.5458903198805394
0.5737571324489048
0.7257844871643183
0.8405047491664952
0.8564989327783101
1.0
1.0
0.7671791093727961
0.36193930783698114
0.23954892505353328
0.1472069716605351
0.10725558659726446
0.11203206571875683
0.11684440124709558
0.13596525723943714
0.25391747618045585
0.4247623625458542
0.5074983878185195
0.5243010631778259
0.5329277891235022
0.547103097111998
0.5515795843740049
0.5456974957343497
0.5334444032488169
0.5441491624538352
0.5454523860758351
0.5265395531197391
0.507547841392897
0.5036793114142302
0.5035849220241975
0.4873768477767834
0.4684247858601574
0.46235406690142666
0.4570348503005608
0.45398958924781896
0.4454999597521317
0.44279953667508903
0.4590833699090747
0.466225272601002
0.4672772120883722
0.4823781468377799
0.5094508065912704
0.5269578912266608
0.5347838638938861
0.554947378844467
0.5755368761490639
0.5835126439257338
0.5851069170001267
0.5920502494666076
0.604517140174576
0.6118790744363359
0.5995873788723033
0.5933417820913554
0.5989321445333061
0.6004720759013407
0.5954408244922189
0.5815970742814972
0.5826088926986926
0.5892878484968407
0.5826223330243948
0.5642163388332395
0.574576038666493
0.5833945085315385
0.5867372758245633
0.5731271584411668
0.5728732455948622
0.5821759805909924
0.5854562751755819
0.5743338037824804
0.5757870044222668
0.577503208754723
0.5780594358693889
0.5764620942474865
0.5762652917686785
0.585027652710387
0.5919220700100769
0.5870596225516249
0.5765622014164355
0.585528971058893
0.6050211659189682
0.6127916037480017
0.6173537831577562
0.6256936542875087
0.6596363363197569
0.6677277664238234
0.6372026537247878
0.6190209599134417
0.6374496633613372
0.6615343658352287
0.6287054935203438
0.5834127017422335
0.5801317185979513
0.5707643284418501
0.5503967473475762
0.5389716508972844
0.5399221132691354
0.5435053289280158
0.538248556971526
0.5324623295084289
0.5431894382188601
0.5494326982709994
0.5374825373192941
0.533640280629738
0.5306955752362438
0.53659870783441
0.5780044796165127
0.7288957101102354
0.8104324732534044
0.8462007500741823
1.0
1.0
0.570003381429576
0.23138835740167218
0.15656923831122055
0.09430502641916112
0.07408277951048117
0.07629842701030158
0.11505063397336027
0.20814433192314463
0.3706557036038714
0.47963839490337873
0.5023160204020823
0.5077629644022938
0.5083526438840432
0.5159900646462303
0.5129212777239305
0.5079721805241146
0.5030841491413082
0.49819328256752937
0.4981114100285322
0.4865286628230262
0.4717741623846144
0.45802478075095915
0.45698983083975103
0.4561462016815801
0.431088067385654
0.42623059437970934
0.4242979197127399
0.4199334355754608
0.41350631852052555
0.414299909360427
0.43469859325651966
0.4506482891496078
0.4563180726875421
0.4676646194206914
0.4955776814432828
0.5235722060691693
0.5300660525652792
0.5380399241906371
0.5551503881915185
0.5646703012831444
0.5592999182937224
0.5554321739321254
0.5705941357497422
0.5714820526819657
0.5660813023337581
0.5471283908601379
0.5512969788057
0.5602353508023173
0.5586372442266938
0.5443801068627809
0.5398185032876964
0.5450576319355434
0.5448501369882408
0.533925996605683
0.5329777189267687
0.5345916607796019
0.5455479421846523
0.5431365935785402
0.5412989920246153
0.5472345829906237
0.5505884960198928
0.5444766430883976
0.5448695201778297
0.5432119612259212
0.5488072056055008
0.5441171633161405
0.5450703732051382
0.551627106103835
0.560682098012656
0.5591987395667185
0.5396375074260464
0.5430764852899619
0.5565220009020392
0.5578690906767875
0.5596765348171554
0.5678014492433842
0.5906905032774867
0.6002398003726648
0.5929644024376667
0.6165749976091583
0.6404926423824566
0.6174583680585624
0.5883388372789392
0.6077979178384336
0.6368924025487512
0.616893166050864
0.5643279100278505
0.541662650734525
0.5399298277416846
0.5342863242586982
0.5233253329075329
0.5166727454032498
0.5237710649233548
0.5218618043114687
0.5138657374910038
0.5071262257703855
0.5166938963706477
0.5251337039825159
0.5232848840695674
0.5154704305916133
0.502943454762071
0.5132931086335593
0.6207906883753929
0.7896994559547894
0.8347321613858002
0.863341860945823
1.0
0.9850835082912048
0.45813103708116626
0.1625013621135166
0.10236731931587002
0.06383438164397255
0.04103016083867193
0.053008982142465744
0.13028944221201644
0.2645715516640044
0.38983447899431345
0.4457768649191034
0.4583852229496581
0.4717059512450666
0.47296578625868885
0.4784859470701995
0.4760266533847317
0.474409141048379
0.46607744421219016
0.4569866330818654
0.4542221443932575
0.44313938971925937
0.4182518190705936
0.4109726571745682
0.40861383565138487
0.40274254332441456
0.3873254895077687
0.37286001747967495
0.3756298518746478
0.3779655958212119
0.37932286138693416
0.38039188247333794
0.39563820856394366
0.41628190084579764
0.43461436289113164
0.4502229212079551
0.47527733123920723
0.49894160513519265
0.507691534529829
0.5125631339016419
0.5192366382868302
0.5345000723403504
0.5409406150498309
0.5354150923040069
0.5346048403287859
0.5449773141504133
0.5493913413112091
0.5416045920382686
0.5295101913416643
0.5372698694416974
0.5387998145012076
0.5338677678708544
0.5215469581318543
0.5216456612211777
0.5299548945458392
0.5219018392913327
0.5195210393449922
0.523040082869956
0.5247694393097063
0.5216255218597157
0.5222451016968481
0.526791754325801
0.5317084964228442
0.5232421695923737
0.5169557822253644
0.5210077218434926
0.5399329614955634
0.5385224020937397
0.5299766072017323
0.529703934342031
0.539385461531542
0.5408797725416378
0.5295182888216532
0.5396853587024758
0.564369904740206
0.578864157010041
0.5783251418770986
0.5831938861896834
0.6218913195595273
0.6289549058087245
0.5991946038590006
0.5777500141350529
0.6073595465780635
0.6353819743588571
0.5945470291376381
0.543574527996139
0.5319762931948556
0.5321608383791003
0.514487194594456
0.5040683984835397
0.5040299769116616
0.5091239332407497
0.5117853920651718
0.501594127255007
0.4950007850130791
0.49923442462160433
0.5113910147729478
0.5066169723406231
0.49626433858074553
0.4953320893138743
0.4930645652253894
0.5642809523439807
0.7436236095267255
0.8233614255570363
0.8464174372471629
1.0
1.0
0.5681298315768647
0.21891713982331332
0.11569436977579217
0.02719303203585577
0.0
0.005406772600820009
0.015454321077473488
0.06451482146505719
0.21311084534326352
0.3768706479053045
0.43974714031037826
0.45477980873102186
0.4700469253667262
0.4938465731162493
0.48884017511048417
0.4730935005177955
0.47201329304552997
0.4789855447388116
0.47523250033391695
0.4571048397474611
0.4446306905048446
0.4458235909769391
0.43316052319295784
0.41477146732902315
0.38801206234586044
0.3874222816513937
0.3856751627681757
0.377688963325119
0.3696963805679646
0.3712276452971227
0.38378419836451416
0.3833153619628483
0.3902863313993573
0.41105316935501646
0.44309366141580686
0.4645807558320433
0.48467670549407427
0.4982992771128519
0.5271813341992859
0.5370781342320842
0.5405179945542824
0.5372360936971703
0.5543325567875415
0.5619107209312311
0.5433609510237773
0.5425393133057879
0.550232114487889
0.556701270037916
0.5438609782194499
0.5335489616262399
0.5386708744348319
0.5405286255307118
0.5346203270265659
0.5268184832021533
0.5278496911384662
0.5347816060856754
0.5287715114468804
0.5246218724423881
0.5279443654180993
0.537925659868132
0.5390894563686434
0.5296725607784847
0.529921082560287
0.5381651422674735
0.538763157928417
0.5323533635439273
0.5310198330603701
0.5408995310061494
0.5440106656094178
0.5327853320879301
0.5339468469519065
0.5488071300558184
0.5680270244831112
0.5746645952740836
0.575016817242975
0.594036777500732
0.6144936119100628
0.6445932840672306
0.641478689566749
0.6058191770260501
0.6080979568238456
0.6327629981039133
0.6306508660299821
0.5904416825959885
0.5604700786125922
0.5487905903006097
0.5271845068006822
0.5149561281134515
0.5213567904477285
0.5205267288494771
0.5156168215192285
0.5108848378756778
0.5155482495669601
0.5159846730359166
0.51111651542495
0.5124780105479392
0.510456161101639
0.5106956891395169
0.4923737445445333
0.5495933852173566
0.7494584667037316
0.853583602063205
0.9056597572890052
1.0
0.9505992905152393
0.36033797238483184
0.12594547464958744
0.04101483555417644
0.0
0.0
0.0
0.024230373823815564
0.1730480241989918
0.36086260218435007
0.4460727847951844
0.4551882172279547
0.4736207691532271
0.4919160019201324
0.49324889785047077
0.4876965367351332
0.48298363550684514
0.4849362919416433
0.4913960723679985
0.4754868216312974
0.4467250216346647
0.44716012316644527
0.43923510321410547
0.4192616534518674
0.39728593947997853
0.38766783520259435
0.3960273412933709
0.39179021262840796
0.3766214663928177
0.37957713937221743
0.39373592925170386
0.39674333293450414
0.4199596261516577
0.43676951600404285
0.46108186140666413
0.48950821343060025
0.5076922419649781
0.518507147912333
0.5336885414799558
0.5504166997788567
0.5541526814965817
0.5544873939067219
0.5613678799815456
0.5696502425496022
0.5604954930788788
0.5484985524228403
0.5492791713999352
0.551874785690309
0.5474784685931667
0.5398481154392482
0.5346201180531363
0.5371542993556809
0.5355441468480433
0.5239527723261124
0.5238925017894633
0.5397503426879734
0.5353405352433872
0.51935425109484
0.5148316968307736
0.5374893820890272
0.5456902706944905
0.5280399160764818
0.5236098302496296
0.5399420290954302
0.5372645118290441
0.5361280276461173
0.5200353183912206
0.5273790448944868
0.5364894690195396
0.5340911876152943
0.5315732000353599
0.5394922355856887
0.5486567215057269
0.5433358567381977
0.5511234470563887
0.5739904626265103
0.5959770436691276
0.5938968254139864
0.6015318426440412
0.6283522868437554
0.6365392185469827
0.614349683948675
0.5918954040389804
0.605775613111335
0.6451564632167575
0.6237639441380294
0.5698518965539561
0.5472086649985087
0.5410460737980587
0.5279113132562241
0.5162651695867556
0.5098338321164582
0.5162564743898506
0.5238777384909563
0.511562961075869
0.49910558507458447
0.5065658066700592
0.515302358741069
0.5110878960416799
0.5068802469036015
0.49882148667352955
0.5020318672582738
0.5845435928717942
0.7884533208032085
0.8945730353314639
0.8878879387087302
1.0
1.0
0.7362297847990336
0.21726474104841764
0.06206821666553548
0.0
0.0
0.0
0.0
0.030047862080196098
0.19594201950115225
0.3685255144139992
0.43850134565525234
0.44192489509171445
0.44778013251808907
0.4647359242611343
0.4737550370229961
0.46596450225783287
0.4560585191233538
0.4457382609911679
0.4479703219287628
0.42633149102199475
0.4098668848745467
0.3953546952498182
0.3881402025226164
0.37836622806374887
0.36102038345332144
0.35176682263898085
0.3524324255969367
0.35441853729768
0.3439343423103495
0.35073206469634616
0.3678295737425109
0.3832759923355374
0.39098475876698124
0.40373779578138097
0.43264256332206924
0.4653925513619244
0.4818660549678385
0.4866925131828902
0.5068475883793095
0.5243837312530245
0.5227087799796793
0.5129475654621981
0.5249463747201392
0.5276580791621467
0.5236387862852313
0.5125064314949109
0.513685278707409
0.51866949565077
0.5224037638142535
0.5064302348060554
0.5030838492806339
0.5143248971959091
0.5102717647084088
0.4987296596713728
0.49402572222318464
0.5062055120230189
0.5084287496068998
0.5000039905071949
0.5033277438085839
0.5127234744250642
0.5153621342407758
0.5080432675695977
0.5088480040017018
0.5144851366232077
0.5203837917935735
0.5128808612697614
0.512517258740654
0.5162402810758768
0.5169855445937993
0.5179173716920282
0.5098130107130643
0.5146635671059057
0.5219745855637783
0.4867394793523297
0.4285524520455768
0.4566280230246519
0.5948891612470534
0.7290690465393995
0.8520900726893543
1.0
1.0
1.0
1.0
1.0
0.984249190332146
0.8327177610847963
0.5135447374493641
0.23655825719982876
0.2667970630461611
0.4590956183459897
0.6033500536747105
0.6812275099232673
0.6508426850891758
0.5519441627614308
0.36762646535246185
0.27510101085958455
0.29851155760617987
0.3082952091277384
0.28164367652356215
0.2539462864743413
0.23749963312152006
0.2277252791980109
0.20711110203986677
0.17732739797349722
0.153733856530632
0.14618317736361192
0.13236292470580616
0.11413713559556542
0.09450347365439989
0.09612864324892767
0.10703053272763427
0.10563935740731574
0.10029962137086881
0.11914426029007603
0.13567010095184587
0.15518874815622924
0.16230628315545131
0.1856992421336118
0.22096906443080253
0.24375907544177852
0.24816093733891798
0.2726593462635881
0.3067546106405585
0.3320300283759578
0.351580177533367
0.367179308133216
0.39200174394189075
0.41491637896500133
0.43711504458384526
0.4545871259582005
0.47432358917450923
0.49381861708796115
0.4966435882162691
0.49742674677157206
0.5091267849536014
0.5165744875501058
0.5153158104162786
0.5116671748721218
0.5227494028908062
0.5357359963059081
0.5294834019201817
0.5211343970315789
0.5190713496118213
0.5329983613055597
0.5349105203814485
0.5253309626939644
0.5252773811770447
0.5313510883772626
0.5322467893856878
0.5267532279877745
0.5271886500766534
0.541382594010275
0.5403495237666175
0.5309145024845139
0.5310534443745505
0.5503344978764488
0.5484260251854394
0.5482044678059584
0.5417140952408788
0.5424014309248832
0.5513594895677143
0.5511456264352588
0.5446481894857119
0.5497563981405753
0.5516769608943769
0.5534651282083038
0.543558773154212
0.5507416100660768
0.5573772926527047
0.5522226896083546
0.5445277017180891
0.5477476060683083
0.5593324292662835
0.5691689413584429
0.5721643942303622
0.5847444325265245
0.6002059709664122
0.6151830842557949
0.6347107487063586
0.6440799440082265
0.6339310158092302
0.6114633475300849
0.6093007828318606
0.6416113721452167
0.6319683476534648
0.589183630229348
0.5511802755510175
0.5227061180901714
0.5229523648580752
0.5238016189474893
0.5185518046276296
0.5014350414588066
0.5019221110483472
0.5164589915133294
0.5120988360156689
0.504487779165401
0.5020235910069822
0.5105981649361993
0.5085057463041565
0.4793625692299221
0.512866455376118
0.6923780935057244
0.8406414688826276
0.8346694739530699
1.0
1.0
0.7940982519289727
0.24379088692886292
0.07646046387892094
0.0
0.0
0.0
0.0
0.08378420013850621
0.2856373498933348
0.40757258487473236
0.43576178325983594
0.45581211629879304
0.4800737894965222
0.4801364323160212
0.46673977075272444
0.4623081674363327
0.46401796326121686
0.45541302423217883
0.44209288604373587
0.42388045968910537
0.4207372119121315
0.40871157108886286
0.39327891604555354
0.36694757433729064
0.36483175326228556
0.3626536064378005
0.34902011837101277
0.34317917282892907
0.35268090004057323
0.3715901361140014
0.36908561534770135
0.37009779562648815
0.3946893855133625
0.42970164221837664
0.4477086045217143
0.4546523000207074
0.48018456054234526
0.5027871581862302
0.5189883297463609
0.5196546094266428
0.523676627489326
0.5372153835582353
0.5428978327100389
0.5334703356118133
0.5236828324905461
0.5285326585246195
0.531075119731663
0.5135660106089938
0.5000216243388877
0.5101449767557227
0.5168371614472422
0.5036553900254751
0.4918997666900631
0.4913938663607171
0.49636978401588117
0.4928548193052055
0.4879196783321283
0.4865031471328427
0.49584236652143837
0.49873980929859235
0.48462014176804746
0.4914434183896855
0.4984653227804726
0.5015808958483279
0.49251674695592956
0.4955205565421397
0.5061646082078493
0.510269933392757
0.4977227496098896
0.503510958707691
0.509513256777663
0.5167468655499565
0.5110262526334827
0.5153452912477892
0.5476033448186446
0.5642670725752059
0.569531533600827
0.5894208944977526
0.6273350394808099
0.613564885394019
0.567763805828143
0.5576789570261038
0.6006554567706619
0.6227440516014748
0.5736768481820265
0.5214911730584272
0.5027542780394573
0.49184876660357446
0.48715306845051565
0.47271828544659256
0.47258204332067777
0.491638190363186
0.48553345548884624
0.4738955717670141
0.4707508791322835
0.4885497945116861
0.4950085074969926
0.48715836297061504
0.46090874267010695
0.47023391606231596
0.5647335463232692
0.7723997096860495
0.8709186954997236
0.8859432177864353
1.0
1.0
0.5563978952894579
0.060657399666956914
0.0
0.0
0.0
0.0
0.0
0.045465298171616195
0.25140227902469714
0.37880233974321864
0.4244451315430647
0.43711990174828774
0.4466380587805837
0.4487999238517169
0.45445163926935067
0.4446902854582113
0.4389278625745523
0.43153983706839033
0.428633822943275
0.4152943692909898
0.3942890525723815
0.3776797166903874
0.37408737712353807
0.3693852017454298
0.3468957372733733
0.3173208729774175
0.3211805435973919
0.33551012033490146
0.32114284507034674
0.315325941420922
0.33763777423908303
0.35804979802630366
0.3821132320689141
0.3966622983463722
0.4251881102535683
0.4594638257133967
0.48066840286480267
0.48460836486375014
0.48608331681711403
0.5073921955415907
0.5168096440713252
0.5056611267782576
0.5036567853326219
0.5121763088039963
0.5158923572612331
0.5097129024881091
0.49919517082115894
0.49714204860285555
0.5025886893268476
0.49868665130310647
0.4867920499540821
0.4876991393619856
0.4985052115861287
0.4917912994326709
0.4873148399872143
0.489609227396845
0.5071610764528967
0.5034082018991846
0.49222260929165496
0.4907077272622655
0.5025261663073577
0.5074803206919458
0.5040507032969117
0.4914810441649883
0.4996586962427683
0.5081484354891469
0.5058818976487718
0.4980764569624957
0.5053918700914329
0.5176903551378577
0.5141315054288096
0.5061927986004245
0.5209980196985928
0.5441503989277117
0.5525867045248547
0.5570361115110166
0.5662708619874033
0.6060494984424674
0.6283874349415383
0.6022407019460452
0.5736753410137713
0.5875437794685827
0.6227925668203197
0.6086668864590298
0.5534787636558784
0.5256671164524772
0.5179617587491638
0.4899696110314899
0.4729485143534936
0.47693258084008755
0.4848960042316227
0.4811116028713017
0.47021953292006613
0.4702983457481009
0.48392846181062266
0.4813734523947558
0.4691352629612539
0.47423848781408784
0.477831934183366
0.4670033790402794
0.5679579990342007
0.8054485899988103
0.90631394791431
0.981742808284376
1.0
0.9777543224690473
0.34561586473874145
0.038749451112168744
0.0
0.0
0.0
0.0
0.0
0.1592391112326942
0.3510643250314465
0.41493672766499684
0.41557820604381757
0.42162214013186733
0.4407386475404804
0.446545560599347
0.4400582571385149
0.42788566569593556
0.4267969886530426
0.42249536875341825
0.4094480091144671
0.38092140502410315
0.36854639296681196
0.36257248980593754
0.3465864324177777
0.3192858125499864
0.30382807718696203
0.30426784452638167
0.30484097983917785
0.29796624418340945
0.29859073276292075
0.314448422616151
0.3421666723609157
0.3605604324502468
0.3796130996668854
0.41123097759256294
0.4324667937879879
0.4516081503732373
0.4659579785150396
0.48099425575858873
0.5009969482002921
0.4962926187178399
0.488963428584531
0.5070402220858091
0.517862588098176
0.5089831813319808
0.4979695170323054
0.49992528333213365
0.5083052785507802
0.49886188482702565
0.4874844504549891
0.48552080408021225
0.4884261342276782
0.488606656783561
0.48133106641864243
0.476334725524473
0.4793298081768834
0.4891677905173868
0.4836990887129323
0.4779686177987699
0.4902714923838408
0.49798552061578105
0.4938496671771251
0.48718574698533645
0.49233359889787315
0.5032749036799682
0.5027020935736153
0.49592044226386667
0.5000605228996402
0.5090286603964606
0.5030625003250093
0.4992945747851191
0.5105479533227008
0.536943004248455
0.5441991149887218
0.5615494401463447
0.5678294923668873
0.6191919532998869
0.6369942376961201
0.6040423266677118
0.5725832219295477
0.5883347018870494
0.6318308315251706
0.6064219562541918
0.5380611846247462
0.5098511821813884
0.4978257710018297
0.4817874472941243
0.4574483779770205
0.4544768394201629
0.468316380699629
0.4682323838798025
0.452680480807771
0.44955776522151564
0.4677299273476989
0.459778544823802
0.45845487278931785
0.46306032485564375
0.4651691017856696
0.43932029781688425
0.47599682353002104
0.6805745399890302
0.8725111695396324
0.8792788337450517
1.0
1.0
0.9894634473482616
0.25679194348727663
0.0
0.0
0.0
0.0
0.0
0.0
0.10444707573120589
0.3007712708733837
0.3803098941028022
0.3871175059048765
0.41493060916502433
0.43366141537198954
0.4388730355985766
0.4312225835150506
0.42133410518256625
0.4326048196809812
0.426738241417456
0.40061259234998703
0.38535877456929757
0.38016352542263
0.35703722271707977
0.3391801600087891
0.32187842233861896
0.31611940685677453
0.30989923976366074
0.2919309728571201
0.28226015008524896
0.29704695308846896
0.30136631648421863
0.31451372210326495
0.3321104573500572
0.36608629523302083
0.38887958094998554
0.41023423727576214
0.42116817500723885
0.4461519335961851
0.47401252673858424
0.4816366746458308
0.4848756045484384
0.48708233135136914
0.49636444039442207
0.49416095639928664
0.48913424791903354
0.4915194065656062
0.5027319270771822
0.497846808740756
0.4856960749178447
0.47921286753785786
0.48890260060995283
0.48061248600234335
0.47134299905609767
0.4627413059653457
0.47257767019143004
0.4795714451854075
0.4738804593899473
0.4710209891595715
0.4735442274880974
0.48371200387226987
0.48581667649022514
0.4699563385141786
0.4755253571025347
0.4824852824878613
0.4835162080951811
0.4755812197416347
0.4783717956894867
0.4928216661991279
0.49659962877410335
0.4792071945970232
0.4864840719257383
0.5121768191530821
0.5320236059692272
0.5472687087664869
0.556066372566013
0.5842336063234954
0.6316796763467736
0.6321599750856258
0.5952217052877536
0.562072358247179
0.5993708565465111
0.6357577117741479
0.5852982065081307
0.5233171702852557
0.5191596655118128
0.49490840626230953
0.45772568202920844
0.4476998454946627
0.47442471801012465
0.4584155566342698
0.4354818788411546
0.4411469391757031
0.46145496915996037
0.44769212100983713
0.4445114994172788
0.4476089780285827
0.4601442992803458
0.45407711597360423
0.42574793868750244
0.4865577005638089
0.7445990399130927
0.9389704645612575
0.9372670506097261
1.0
1.0
0.6638609892628884
0.0
0.0
0.0
0.0
0.0
0.0
0.0
0.07874668922761208
0.28491554531736674
0.3456613547284293
0.36623474170416237
0.39961495128256147
0.4114797928451832
0.4134119854119461
0.4092357046137175
0.41311232951816185
0.39497034651497626
0.3712607070920817
0.3607303256583882
0.35041296034245545
0.3273515348453536
0.29666218428660773
0.2734406835428923
0.27829924427322916
0.268129041176173
0.24702716658214213
0.2413733694716028
0.24417019929361278
0.2500734804457979
0.25884251221022087
0.2632531463979025
0.2863907640320108
0.3276080604068291
0.3537869693519757
0.3739454226024718
0.39207926372692237
0.43340330974572366
0.44471453622821383
0.45142339872831094
0.4623809087755982
0.4780515865723842
0.47959572558741403
0.4615386013047895
0.46522038100587404
0.4749456524913039
0.47128327930756
0.4597717027350482
0.4414063052735842
0.44917735318350693
0.45662341633841913
0.4416717530708184
0.4363785483784703
0.43464812636072675
0.4370926748546443
0.4393161934152311
0.4342795716836168
0.43119412187172024
0.4486437971687417
0.45465662387823197
0.44030254327011054
0.44389451497068216
0.46296117422123606
0.4587607724721221
0.4477745004506294
0.44951281882399485
0.45764070541456536
0.46395311246233717
0.4517911175727449
0.45102257889204844
0.4629985772264228
0.4773274833817386
0.4785950384118431
0.4787387848125957
0.5047272544729264
0.532036337680047
0.5384146649607955
0.5359727714241395
0.5988619555401773
0.6165529239414895
0.5644293234762998
0.5268967717962657
0.5739416402278685
0.6172370956762849
0.5734506919504604
0.4900335828805864
0.45620103066902506
0.4518383308968691
0.43669207694663925
0.4267236123209564
0.4216049438874242
0.42904659045055904
0.4370688441036057
0.4151159120738736
0.41629299964932487
0.4308999549073141
0.43328768670054896
0.42162770542556494
0.39509301150851767
0.41315556814046817
0.5842584411265538
0.8940619790617754
0.9551867869843125
1.0
1.0
0.9946718456754663
0.16027906892698343
0.0
0.0
0.0
0.0
0.0
0.0
0.0
0.17674003034539676
0.2642748435757973
0.34061181013800457
0.34238964740013744
0.30527873237923464
0.34300207422494144
0.3382427803067841
0.36205039386707016
0.3528303249722665
0.3134603410761632
0.30949652155698015
0.2928431831895811
0.27983520754349034
0.24464433563821647
0.21992752429453324
0.22017781992342184
0.23857507560886687
0.21415560732531197
0.196309805741196
0.19952410165735418
0.22702578063435092
0.23127309033672278
0.2156848347289738
0.30400600510182335
0.31592704076350736
0.313869623824284
0.38850135558525756
0.4174088908262311
0.43002802450243083
0.437578044130403
0.4724250247198835
0.45322377680317627
0.44666760463514177
0.49735253625048825
0.5042886989123196
0.48103716138933345
0.4820727192530133
0.4419798669730797
0.4856013049138725
0.4966001917727791
0.46379467854383594
0.4463100872101503
0.43432276265146585
0.45688946536133246
0.4514643331745177
0.4482450733301414
0.453189247485549
0.4205938572503012
0.45309085639591107
0.5177549657440486
0.4611213180757782
0.4363646138059016
0.45689401698473253
0.46861525758303835
0.4923390439614024
0.49351754374807016
0.4844867691136976
0.47547462259798323
0.47246299390431024
0.48481693809225546
0.4759673898600025
0.518552664734834
0.5027579208148522
0.5280687899247316
0.5604767471990313
0.5741261769948829
0.5987997792354527
0.6403024697376041
0.6460933842099864
0.6038350684379001
0.559192709487112
0.5930911437153241
0.6473213138540492
0.6058827906986982
0.5371714188313309
0.49236114001051295
0.45628353666963906
0.47262644589381936
0.48902714411919046
0.4663010348417286
0.4362761127018787
0.4718770480516367
0.4556732519490071
0.4549930346506182
0.462628685050645
0.4622546125716747
0.4538487008623984
0.45474063301456713
0.43087332417667074
0.4520936112327808
0.6465841827285667
0.9721736999678722
1.0
1.0
1.0
1.0
0.7024710736064289
0.0
0.0
0.0
0.0
0.0
0.0
0.0
0.1104484644561666
0.24983700290913619
0.32262328434240184
0.36888132578117094
0.3493187283613513
0.34531939131676215
0.4405472484118806
0.4345245619567425
0.3225113324880393
0.3151163707935204
0.3620799797369423
0.360941184745128
0.33249440674134007
0.30276401573125056
0.2783051826061079
0.2608555656675416
0.2522177502366603
0.22513702347231793
0.2021527254770576
0.19461536250097997
0.19627685523540497
0.17809578511892954
0.1924018423109727
0.22014051494012307
0.233680081123883
0.2395728780120423
0.24961441620577776
0.30673982368104136
0.3614700387249758
0.37116944950266106
0.3713787912249378
0.43488149814412064
0.45665470214946674
0.42991848404145383
0.44240742700283675
0.4268883246013191
0.4650785575790574
0.43215662838229657
0.3657215967699122
0.41208033017861334
0.4253256347706273
0.393439553229044
0.3837575516108933
0.3599205559908909
0.3179303496908723
0.3402852163431732
0.3457201889904013
0.3134632623434143
0.25847867407545977
0.2988883131792899
0.3280538906774625
0.32362135068741027
0.3179725741812625
0.30916481843349575
0.2959317013439301
0.3320148767566834
0.3005402101774778
0.2984412289885624
0.3695953005529141
0.31265561282926274
0.3538995069778389
0.36510837768975096
0.35436761706876113
0.3351377879627725
0.36252660022330974
0.40013987480860214
0.43989860762497396
0.44845826724401805
0.518271812541529
0.5108473838997594
0.4248945682406095
0.4808606224557425
0.6024272555252879
0.5428509420171346
0.4172233022622652
0.4407049419676706
0.4417428452648292
0.4099237442629634
0.44491900469613405
0.45785567222993767
0.3562340734478759
0.38131525632648344
0.48019948098832066
0.43985812328182006
0.37401897971958514
0.3705309621635283
0.42770480728361254
0.4207142507410377
0.37885816879149614
0.45266467278922545
0.7118849970618847
0.9340572093989167
0.9032562716543937
1.0
1.0
1.0
0.3241212586167704
0.0
0.01625738337286755
0.0
0.0
0.0
0.0204900262000427
0.2025390243005904
0.3634943637689959
0.40051244631292426
0.4447757820876773
0.4871526091547144
0.47011030060642583
0.38537216124181006
0.46349719202290585
0.5179464829323119
0.4409014542860034
0.4039448163895766
0.4541010463328634
0.44241066882269575
0.40246507709602264
0.41253714016752874
0.3784091528952235
0.37116096571663043
0.37125643489403404
0.34618920619383
0.34018700513520395
0.36612500130035824
0.34184455130179625
0.360789104777034
0.40077431475109904
0.4199260650971205
0.4393739289770851
0.46594986868827765
0.5125468071711948
0.5254825780187329
0.5564700105669154
0.5954097167279631
0.614880272432335
0.6174089771735874
0.6319696988533663
0.6259217517223512
0.6403870097853821
0.6543932993792535
0.6710050827685397
0.659009443290272
0.6634465873655536
0.660915958079679
0.6592011972278294
0.6650223955467494
0.6661072604249367
0.6586885713693154
0.6663084507859949
0.6670471019241612
0.6642598947985089
0.6603987966712609
0.6622210915007762
0.6817882463763552
0.6664998427764766
0.6646679565932411
0.6760741427916528
0.6858582087681255
0.6847619368682992
0.6798381307050305
0.6785226072412407
0.682237912337494
0.6844946470690785
0.6909976278913705
0.6817124862851132
0.7036180366002359
0.720725404719434
0.7220852559122644
0.7387413668565914
0.7581114759217176
0.795717205987241
0.7858200065389442
0.7522228971986815
0.7462389244908569
0.7835671553434426
0.7756260400188599
0.7141291764639277
0.682779385597302
0.6812578569550256
0.6609565342402872
0.634494601506187
0.6378723464600581
0.6520294160290894
0.6349110196007401
0.6284044042799195
0.6428093869531274
0.6412430103443217
0.6301156795635906
0.6255423718968636
0.6110112887420256
0.6038034553643243
0.6424876348370133
0.8170628675081115
0.9352733607480221
0.9396357229854889
1.0
1.0
0.8694543910029428
0.39980323930697337
0.31464016042257026
0.2707991812049869
0.21032935555006352
0.18819923309319792
0.2072982968057253
0.33110127457524835
0.5243374522064987
0.5996865890384012
0.5856812329471566
0.5906655193011888
0.6030520514405163
0.602559008645956
0.6062130078596588
0.5947331763494063
0.5841134360911525
0.577574036058287
0.5762039772373913
0.5445607165723061
0.513923496841094
0.5074916965198593
0.5038674848910295
0.4892409179678552
0.4699111493705175
0.44008883635005064
0.4530287641234308
0.4639034640939249
0.4477120461730081
0.44276425625065574
0.46970469827580674
0.5022342870513263
0.5120785467614877
0.5358126515044631
0.5666762211314891
0.6070889320364593
0.6187276302887899
0.6384982735015157
0.6503077606415205
0.6659127095659757
0.6777004042792111
0.6663662215087336
0.6707203696341335
0.6824204113746573
0.6769400574168507
0.6614400013424717
0.6665447267235133
0.6802274601330289
0.6794028082245355
0.6600330225984807
0.6514660351692774
0.6609651112102585
0.6688872114265367
0.6585743331110318
0.6563680972750132
0.6606173825402804
0.6678904346518746
0.6586223407315086
0.6581093438115606
0.6557717767270999
0.6618235285051955
0.6591073870089694
0.6487557550022928
0.6618239912996309
0.6726569062377139
0.6847298225069486
0.6932442802847656
0.7001961547678418
0.7232847381810896
0.7513070796000083
0.7520016627228185
0.7257554061973198
0.71849736940706
0.7383159790690108
0.7537006303373726
0.7262866671885141
0.6963545060819698
0.6786793655267417
0.6555848778541556
0.6351002730339551
0.6291871311803539
0.6368542935109918
0.6297814991281294
0.6236515201034363
0.6236126141182888
0.6362180634357157
0.6233446459361173
0.6132923077683078
0.6138941501335
0.6174328632345507
0.5934323352584834
0.5925232623845912
0.7203477110878228
0.885099005708331
0.8996838999939666
0.9809582496120843
1.0
1.0
0.5983950231006172
0.3976862551378151
0.32023318474963347
0.2772935085296967
0.25204951365524036
0.2288606786435658
0.25207373446695097
0.36319055150664087
0.5188281837444633
0.5765163809168736
0.5561468863549445
0.5697856159751782
0.5965236005694157
0.5848647288672921
0.5748289361893784
0.5718760792329178
0.5781464113658332
0.5662342545435035
0.5470330475460717
0.5332676934273269
0.5273604257785943
0.5192352536287886
0.49717492605363134
0.48387661935005005
0.4837369529938195
0.472412860203009
0.45623431160182804
0.4454868969346048
0.45136779054178866
0.4628378285416127
0.46653098694469275
0.47157414990150237
0.49180879926401355
0.5178812345095751
0.5388332479936581
0.5524692065236386
0.5838686672506221
0.6077273923968448
0.6122562966957664
0.6347060055466937
0.6385640320522485
0.6557548866677225
0.6532300940987678
0.6473555818133855
0.647424707116829
0.6577429883153869
0.6532351795788041
0.6501128322669951
0.6406106373431704
0.6475573444426541
0.6520198309427443
0.6342824735396146
0.6219668183869096
0.632109305598539
0.6376407981988678
0.6254958143349872
0.6220255431059857
0.6301267456381787
0.6367021142255338
0.6303023097809823
0.6171743693609565
0.6275687233960404
0.6420448603942903
0.6381196647915018
0.6349855702601059
0.629222937688094
0.6429275514301552
0.6505016482544874
0.6527275940101964
0.6551154151429548
0.6792251916129952
0.6990619255821826
0.7148853089247068
0.7190378699365654
0.7033742934525934
0.6854644079269115
0.7027100125450744
0.7222135273478265
0.7023923899744957
0.6626099925309017
0.6390682751198319
0.6224105007320381
0.6153760553517513
0.6173195474515998
0.6119812744964463
0.5992487068918825
0.6000403410963276
0.6090794285129089
0.6098014800891892
0.606902246418015
0.6087632343181673
0.6107466600201666
0.5972247424512742
0.5822213557932818
0.6727041841964161
0.8437647901311329
0.9010781250823101
0.9850786127697809
1.0
0.9245344105829105
0.5133967366461311
0.327427045879953
0.25512580685636477
0.2238643296105512
0.20685517781161086
0.2059775293735059
0.2668811536105417
0.4101961146107772
0.5220085922453411
0.5425050063863763
0.549350401135752
0.5586930624444677
0.5794695700462451
0.5742733296125921
0.5608268949597397
0.5636195592257668
0.5681380577833377
0.5705532507949045
0.5577665612004129
0.5313764063249646
0.5276663256903644
0.5153883749971665
0.47809972520069594
0.47106030284575306
0.47875142766606393
0.466482029552323
0.44883686844026033
0.4458995375420224
0.460277001621168
0.47024913896921
0.47495526481735933
0.4839182180667908
0.5112744297039359
0.5433473928962436
0.558270978657263
0.5607751738770445
0.5723800741851948
0.6018263703788701
0.6007852695278115
0.5986507560279254
0.5987005953620792
0.6046932704789849
0.6034424701123373
0.5921115202626306
0.5943796815429746
0.595390274897641
0.5893836685379231
0.5762423868335501
0.5674000137582883
0.5735781249988221
0.577317196546683
0.5555181452956865
0.5493701944001399
0.5608059441099591
0.5682471523053996
0.5652966932854067
0.5644327424331828
0.5566224030342631
0.5660014432718345
0.5653512338357224
0.5599304709659985
0.553285809573859
0.5512208198492876
0.5656668919990767
0.5783742122742086
0.5718934869882523
0.5972248194543788
0.5963390080730854
0.5914369914404018
0.6184312877935253
0.6284667504648199
0.6171496767290723
0.5946600179862308
0.5937586448704584
0.6080565889810523
0.598194314999874
0.543248476569032
0.5107779387696378
0.5010978721619582
0.49019347813250225
0.4816280479739821
0.4621937993132838
0.4525653387997252
0.45430732808470253
0.4486031524925697
0.44090631108129397
0.43358488760819397
0.4341511761876631
0.4187399739696079
0.3882709832106749
0.3964532891388425
0.5081080912100592
0.6357876778454222
0.6603819423130166
0.7684120805780225
0.9358971013960999
0.6915378060479799
0.25238668149372634
0.04079493833853513
0.0
0.0
0.0
0.0
0.03279052734775796
0.17669679985888248
0.2604434751365353
0.283672110763438
0.3014826584168123
0.3161332120437126
0.30973290923833274
0.30424449633950246
0.30247329174057674
0.29701044963169
0.2887899775079884
0.26966021945514057
0.26022710169595975
0.2589676937464342
0.25022041930544436
0.22846689168871248
0.21054427838123377
0.21747793656599468
0.21676211688128433
0.19394390543750023
0.19198862007416326
0.20254227742856928
0.21694061095055722
0.22087087158319058
0.22979057438844785
0.2541314371937619
0.2788039817138226
0.2933988704998156
0.30016784573441846
0.31472811224634645
0.3358633302476346
0.34010845009560625
0.3368375123088177
0.3447527447796781
0.360559461874902
0.3483182422405278
0.3517635283021467
0.3511593517091077
0.3580222620905175
0.35666646403157487
0.355285511178381
0.34591103858985944
0.35276667416787977
0.34566800603043246
0.3415680574828025
0.3415368870361396
0.3424936499192083
0.34755369868114333
0.3455898971715844
0.34545815589144524
0.3556793463909577
0.36102660091978295
0.35766511293944353
0.34978424255740564
0.35979137209115
0.3680129938009852
0.3697497496486591
0.3683288655497622
0.3782313797970565
0.3935307081545437
0.4093012443053293
0.4145352035042683
0.43122722493039517
0.45975515774229303
0.45772409108897494
0.4284657334855474
0.4191246394239913
0.4504030053098142
0.45758333618033475
0.41943960367974925
0.3861896809534383
0.38253166690710805
0.3730159460608712
0.36487236082282987
0.35793530251236294
0.3645281207368498
0.37161839299649263
0.3623125719626775
0.36024709656156445
0.3675815364378641
0.3740175590641496
0.3769706901316859
0.36156925165558795
0.36264507667575635
0.41207603765795253
0.5297764733136733
0.6000302813482821
0.6399142439051253
0.8137446428599457
0.8249260954943061
0.4703087121195201
0.1770687021440706
0.08480770423706288
0.01669692881136573
0.0
0.0
0.012685554901625196
0.0937110631307867
0.21217081782551364
0.2994032568842433
0.3396413369441264
0.35732794370079635
0.36535416084127215
0.3696655890017141
0.3757835713049807
0.37926494921979087
0.3837031117661024
0.3699281278692329
0.36383657653128576
0.3628316895494657
0.35602313574495065
0.34530546963965647
0.3362844712739241
0.33438224699333147
0.3234025043729215
0.30992492205706473
0.300206771539188
0.3148049297547485
0.31076444483655635
0.29732088780949917
0.30746568574607946
0.32556165719157715
0.34004826548848055
0.36496874144276664
0.3663915530812526
0.38770795377673667
0.41328079118547445
0.40941707294051477
0.41530653842671805
0.4270882417369898
0.4161961229760115
0.4426107469906153
0.45350584952669537
0.4239650970198194
0.44690570987131695
0.454916407076942
0.43610197370865056
0.43315553165057785
0.4411114932804973
0.43910558372334113
0.4255510816473813
0.42849398885349227
0.4324874395783175
0.42118042611849393
0.42326069724291376
0.42782517954529364
0.42900334744241997
0.4314852236663106
0.4381013031439088
0.42543111153569324
0.42818779475470903
0.4464778776654084
0.4440205095771472
0.4340092250781454
0.43803692228029156
0.4458381422562262
0.45082602349745204
0.4454467503148596
0.45828839967343704
0.47717900496354326
0.48826275114805967
0.48679744750665555
0.4820788115413698
0.5410389571370888
0.5386057665436452
0.4997823154497749
0.497802095335435
0.5131236975778425
0.5430981958899542
0.5116659848367423
0.4790162438073877
0.46604939445082066
0.45020992013373506
0.4452359989929449
0.43980309145514707
0.44016955350264836
0.4376210525327481
0.44101174117773506
0.42793308997039103
0.43132860981401266
0.44063390103611677
0.4361827717071982
0.4221287749197731
0.44190664892563225
0.4363014618444051
0.4241258152061014
0.4949544176625002
0.6314125461047461
0.6621749040567639
0.7080596279149824
0.8980146269258757
0.8581173896338005
0.459394462041795
0.21863577397221406
0.13281195365983361
0.06299033431629794
0.06453111549402957
0.0718018834661466
0.09884499012650165
0.1896363029132054
0.32831154152765774
0.39558035871382663
0.4076234341919194
0.4193239583999496
0.4278824525530204
0.4382164167150366
0.4382510142916166
0.4248838919307829
0.41694234256556795
0.4285988677738145
0.4267503863004781
0.4114517944442303
0.3930858971235595
0.40132702178589985
0.40324393058073194
0.38400346470757035
0.3687749054179341
0.36593864693100614
0.37140903014813176
0.37072567059339945
0.34708056974152646
0.35735376503722416
0.38928299128153104
0.38256698435779574
0.38774565524671506
0.41790372458076586
0.44114997260919664
0.44226916429278457
0.45485675603294906
0.4755188031819255
0.4797994289935379
0.47741359310310016
0.47909374881622746
0.48363137951552904
0.4899455497927848
0.4948307478254425
0.4878942612598176
0.4860996838664812
0.487085423523611
0.49259181904428617
0.487347220748039
0.4820821279320399
0.4812267962601169
0.4733865366234353
0.47465306720995004
0.48122886860142106
0.4821215493892869
0.47573435918866364
0.46816957952785077
0.4709447258855756
0.48230513635132566
0.4856855399208517
0.4994286931745074
0.471087390979963
0.4709648691353755
0.5006995353811455
0.4963794903912997
0.4855248783772107
0.47882953182370114
0.4867931743860906
0.5138193416442027
0.5101407164589981
0.5196179838909973
0.53440308624306
0.5593082118474854
0.579385639820394
0.5568137720206543
0.5440736871318004
0.5448747031754417
0.5670196267224388
0.553112166896406
0.5282583130746444
0.5101104186318238
0.49727025836317323
0.4764114904579147
0.4720709178898678
0.473444832714413
0.4679519446123339
0.4738898465643945
0.4705362429625642
0.48523202565488444
0.4791446835617147
0.47207672473162765
0.4696708322827359
0.4632000287079703
0.47982582084198133
0.5192890644239035
0.655138270829285
0.7257135333675067
0.7643181618886589
0.9460449547974743
0.8437520421885256
0.4110074078168541
0.17107434381335046
0.12306764491165936
0.09401434142509624
0.08492274764102622
0.10279767389802696
0.13834874001573766
0.23531821520690022
0.35985964150564564
0.432187138950561
0.4501026037192296
0.4522902521176069
0.4615201040932274
0.47009267546207295
0.47210651298359335
0.4745301907271102
0.47402443485571755
0.4625337338181808
0.456462581600629
0.45212015740535694
0.4298011010112597
0.4302955850958604
0.4372961352954833
0.42733019723526977
0.40968029383536153
0.3969025715211667
0.4076111668220953
0.402780405040467
0.39579092968835283
0.40788371629002446
0.4168748445905388
0.4302349730448737
0.44494355742119324
0.46474566146139135
0.4841956131513416
0.495508369418076
0.4912467562664313
0.497157683335607
0.5170101962770237
0.5190709039958958
0.5146010662669989
0.5214933084544169
0.5232261187584231
0.5149979922186079
0.511816343534772
0.5043530133293055
0.5060139408841021
0.513038139558643
0.5044162630253555
0.4846346710468943
0.49966079006809894
0.499163481346816
0.48585694280326075
0.4840554173498847
0.4968146450500643
0.497404786599271
0.49102087305126724
0.4901269941448918
0.48347528428674746
0.5000577834276976
0.5003463974886184
0.49634334109885686
0.49506978547522607
0.5011570110329617
0.5020862241515311
0.49641900168751796
0.4980102976115532
0.5088919290122224
0.513783390712595
0.5174138544080682
0.5246701578995352
0.5406425045257812
0.5490690573452258
0.569463703400345
0.5804275956844971
0.5668608638265972
0.5516903150331977
0.5522935140635695
0.5731523614097426
0.5724194147646094
0.5391154321756962
0.5012496563474841
0.49547656242030824
0.48442658465022265
0.4916068581748103
0.48871892543514156
0.48020600975730277
0.47695192223659166
0.48395907816680284
0.48467175703979803
0.4869557347735955
0.47926105975576566
0.4861000878764579
0.47512430009789836
0.46413541504078537
0.5020962094421392
0.6299748698825859
0.7313320492935101
0.7339499267546303
0.8542928597943431
0.9695333524069719
0.6393482661667145
0.2344916868954829
0.1307228931370374
0.10534235977682589
0.08779492741645419
0.09092312090277402
0.11437548284434981
0.2020186298256701
0.34927668775936116
0.43684678267341004
0.4490996587711146
0.45812057746848656
0.4765048971304874
0.4798898680077846
0.48384922451826434
0.4728417916246187
0.46163571736526493
0.4709083696478514
0.4740244335101437
0.45742221911674263
0.45137037668352775
0.442968619310944
0.4293073447410398
0.4255990555523721
0.4262459477440405
0.42258653568511245
0.40363951263235587
0.40266763296587565
0.4107878107093989
0.4171068880054075
0.41689878258092666
0.4346506120384114
0.4529229407360333
0.47808473938728835
0.4816849851262698
0.5002137838020315
0.5086058825426851
0.5226552315646521
0.5336994543952579
0.5291399739428989
0.5325725877766745
0.540375858451238
0.5337913964561964
0.5304983722407525
0.5317313599663965
0.5364937999825463
0.5385065476306713
0.5231601491480226
0.5122084449606964
0.529185009514028
0.5251386961217162
0.5171177198587649
0.5145276429982696
0.5200215637266886
0.5222855060559075
0.5188802725939544
0.5239995789953513
0.5270904464558825
0.5206148050634904
0.5281791504032534
0.523097818788647
0.5262101953513796
0.5277910362155108
0.5245162288643197
0.5193396696511587
0.5250345537985941
0.5356839969168491
0.5314187066655992
0.5308063147724534
0.528887755199615
0.5331791388236908
0.5543404165618813
0.5622893816109468
0.5637020004734794
0.5747391793311014
0.5967869980433682
0.6030602136124655
0.5912311240060453
0.5777701689393954
0.5749187496924817
0.592515526599153
0.6092180717115603
0.5824059202293538
0.5529321580017654
0.5323670035571971
0.5147286903873083
0.5090756817635198
0.5121100218694965
0.5087309410663784
0.5057372123180008
0.5025970512029098
0.5115054877375855
0.5105286514312776
0.5013161499614631
0.5052609420641442
0.5149497320360324
0.5170456639600578
0.49984084073517165
0.5019734467982225
0.5912304217794133
0.729316635833061
0.7508253041424167
0.8059905980310571
0.9840454700891718
0.8400333226775112
0.4165930656175772
0.20691889817450854
0.14682545153299595
0.11446616652041289
0.11503649393387154
0.11197848392076222
0.13655108971528093
0.23808554741332572
0.36760885300482504
0.4392449083891511
0.46828472585726155
0.4835880614460521
0.49201835672952904
0.4968154800945917
0.49141666018216207
0.4967301539105554
0.5031370372731917
0.4996536978880061
0.4896035752575153
0.48403085789976724
0.4806434010328739
0.4679661438078516
0.4561719012149369
0.45115240344939356
0.4414657438398863
0.4380142317020651
0.4345724539578731
0.4326686224875207
0.4286318475689918
0.4290223237280758
0.4353948741695448
0.4428644101583342
0.45856582685839153
0.4731826888531595
0.4887404157704124
0.5054482899724297
0.5260368264636374
0.5293528965727149
0.5286854744516346
0.5335323978614913
0.5436126392319636
0.54981096408332
0.5466485622289105
0.5407652721086625
0.5406232449460086
0.5497304573611769
0.5495975343149228
0.5379994484071521
0.5308287652499117
0.5416105628899603
0.5350923656825879
0.5296726394124855
0.5239070363443232
0.531742476845754
0.528961767739256
0.520959677450213
0.5214710624190517
0.5297329855930657
0.5333592142664039
0.5183517531166789
0.5195469834189604
0.5298885307125845
0.5291630204820181
0.525369905239618
0.5190126199685952
0.5264647924100453
0.5353558156397697
0.5319892968158133
0.5265733489362535
0.5318345411953181
0.5355155197181406
0.5384018420050861
0.5425748346324688
0.5465761193793888
0.5556595275634475
0.570366523194393
0.5725508074739333
0.5903714165714324
0.6252329943375413
0.6199353797888525
0.5769135885484508
0.5829131715721795
0.6222768048201693
0.599643181054667
0.5567425002095358
0.5304266206684896
0.5287313876191946
0.5219334365485542
0.5129343389601899
0.5123285713932411
0.5136539200470098
0.51875653015874
0.511989339255786
0.507027990274748
0.5149904920329222
0.5184433372900159
0.5107960965935476
0.5078573151608892
0.5076434150527571
0.5464901487777744
0.6710600634785764
0.7572598364434129
0.7692643056839819
0.921094305175636
0.9473990967024875
0.5249640860435331
0.1847120411343366
0.13028625798781396
0.10867722838010305
0.10724300881059694
0.11888134697058814
0.16656279957001482
0.2720619279985481
0.3869937506621139
0.4469294569219784
0.4702127818454042
0.48521338968026895
0.5006024677408798
0.500782510259939
0.5033932372351905
0.4925574439248037
0.5000719174505288
0.48204721573797943
0.4771318218855153
0.4758536161962307
0.47903105852672195
0.46361790081454196
0.44841136328681275
0.43998134138929
0.4338574320036618
0.43568469452341213
0.4270157713198219
0.42565457987940264
0.4316538221045885
0.435499640855717
0.44575675233190815
0.45829461716480047
0.47579381209723676
0.48561091116398086
0.5059642999066792
0.5160953774704612
0.5312753321119388
0.5388650485540962
0.5367745421628757
0.5510789938658782
0.5549042704708425
0.5562282574467159
0.5535786116787726
0.5524283619149826
0.5623764390058801
0.5492797093731185
0.5509709974693575
0.5523830994020372
0.5549412144681801
0.5556384997503613
0.54220499093963
0.5470688823387528
0.5476120166142747
0.5491321089943255
0.5425464891418932
0.5412876726327641
0.5454686258492328
0.5500133122137363
0.5595331862225349
0.5578652244587439
0.5486713004000514
0.5572777157333333
0.5597028169229357
0.5585077446662949
0.5618803079793715
0.5607796730375685
0.5660847168261229
0.5566532159750295
0.5548402551848766
0.5681837465549558
0.5668695470090807
0.5672798828499211
0.5730038145408793
0.5827461475714288
0.5866866678009931
0.5944454448872604
0.6015913905861039
0.6149251744155853
0.6445088908341001
0.6562716088649407
0.6255594041088419
0.6133972745171579
0.6288876799398677
0.6448954395636372
0.6350259939329252
0.6166447693794576
0.5831772145543901
0.5622919048222432
0.5588503531458746
0.5599206931921239
0.542429358688693
0.5414253246507665
0.5483562864294664
0.5429590726989321
0.5489013068197981
0.5488545985784252
0.5449356501583009
0.5478292528587233
0.5576360038076388
0.5474886343553946
0.5341844041956975
0.580363098766398
0.7308577665550814
0.8096134780084794
0.8334601620196637
0.9905163413788932
0.9151350178739808
0.49299416038832106
0.2408875402908281
0.18951787198400355
0.15999154928111659
0.1466049125499551
0.15108804322063968
0.17246296634394756
0.2605980490386069
0.391601830612679
0.47145938263095105
0.5021827558369409
0.5184689489298078
0.5316944622067095
0.541054061455241
0.5402687029391615
0.5282065966252759
0.5292777203275117
0.5432863004750391
0.5307171136409095
0.516939474088023
0.5117867820988344
0.5085470993017911
0.4920877215471672
0.4771515030073951
0.4772967766916157
0.47292006044894447
0.4690335918839952
0.4558751736490339
0.46186658512828715
0.476366253576259
0.4786317794303871
0.4848514002667791
0.49663014564370495
0.5201110421439449
0.5339451326252153
0.5431563664405114
0.5551577391759973
0.5731191129840949
0.5850234214469221
0.5801110066140929
0.5843933514366022
0.5979490251459023
0.5954646294022181
0.5879420278818734
0.5891315438849728
0.5944180028726351
0.5890849635918095
0.578785245741694
0.5750552180576112
0.583264378213054
0.5728173954642272
0.5670235623772527
0.5670703004562979
0.5682211543693191
0.5677143717185701
0.5682599096300589
0.5651630738368498
0.5700274813803355
0.5730623533192833
0.564959776664573
0.5650443788662626
0.5694003850542214
0.574384804867319
0.5731397996713872
0.5674166837183319
0.5642377414747418
0.5791234643959966
0.5785981541112911
0.5776208349392549
0.5628099164919911
0.5787487984977985
0.5895432259246688
0.5900112350949389
0.5922269812933237
0.6021999160213126
0.6209470313515594
0.630632263397404
0.6546878961082758
0.6443690378365557
0.627046188478322
0.6239548931354487
0.6324522562349699
0.6453395496252801
0.6271776662287752
0.597426696498889
0.5786557510953447
0.5708555903490639
0.5578155306341829
0.5550828060320742
0.5459324446759244
0.5481223864316154
0.5510831415012506
0.5499996576139908
0.5416028019712298
0.5446759337311453
0.5487908189964814
0.5516266228196537
0.546638573299626
0.5314575700497045
0.5386036699473767
0.6375692747784548
0.764782830702513
0.7829218908197644
0.8480842877354787
1.0
0.8816573116880025
0.4472496020441376
0.2221725501722903
0.16803634510041698
0.12253931519177778
0.10895085885288033
0.12922638908799827
0.16553811027858614
0.25319015471066864
0.379001601377812
0.4656021896141992
0.5061046931582174
0.5184696383671997
0.5189851130043028
0.5237540232344976
0.5405448973957659
0.5272256480525896
0.5219150471012269
0.5157612822019123
0.5146154318967344
0.5094257794596823
0.48996506642912807
0.4821808096482708
0.47590208588830496
0.4802199070430223
0.4684034692379878
0.45195986801316385
0.4517431005599925
0.4466824988825814
0.4549750705360697
0.44642417805983614
0.4439899980194289
0.46247957717781124
0.4814992501519013
0.47661407548572055
0.4959043882192078
0.5261223099562998
0.5402385392673686
0.5449283038088834
0.5459689207510957
0.5530571029576101
0.5777046898281631
0.5708044253099945
0.5665531965751555
0.5726541348438517
0.5777355348540334
0.5696762519002914
0.5614247734089494
0.5669892604709809
0.5715650332779976
0.563768706270535
0.5496434456263252
0.5512999867497097
0.5533899746144322
0.557768714978196
0.5504528968690816
0.5462650717521889
0.5570308051406951
0.5571585951585956
0.557801831163964
0.5447387932189779
0.5488290653164116
0.5598799744438507
0.5534275347995914
0.5557407973967384
0.5600423410440621
0.5577339643420659
0.5562518819983399
0.554158960860972
0.5556454158798892
0.5633505850836684
0.5594740234249584
0.5530155808761567
0.5615080607016409
0.5630216056967748
0.5722091985084581
0.5773525084551954
0.5846702279510182
0.5989179993355429
0.608927622163296
0.6265681034606421
0.636318665084359
0.6247028241987371
0.6087929165640654
0.6129847160607308
0.6330206290568503
0.6117333321209093
0.5773731050720055
0.5599547276991558
0.5409950715244499
0.537206654197131
0.5405415636724954
0.531194366151876
0.5296100072873402
0.5313679737612849
0.5273958582913572
0.529800761578246
0.5298364510996265
0.5330728274686741
0.536035061334146
0.526838310046259
0.5492059467537452
0.653716851974873
0.7875944174581365
0.7984159522535246
0.859853559277153
1.0
0.8375440090948754
0.3813988619187636
0.17167868648120804
0.12801248524709313
0.10329232240307115
0.09236763587056629
0.10730087251422131
0.15425347182430088
0.2745781427853918
0.401261585933529
0.47349189958103405
0.4861817953711155
0.500898908633912
0.5164091186895979
0.5142588402628054
0.5122031383882795
0.5136705979355702
0.5122138119084149
0.5043116178976385
0.48543554960879554
0.48571490980977394
0.48378991315040415
0.46948020757401265
0.4553203545511546
0.4363924560085476
0.44349169552169876
0.4413915740061677
0.42701918118633764
0.4190247063059173
0.42779359023884467
0.4393878385946974
0.44777019273840946
0.44631897447710767
0.46594669875205674
0.5015153368588227
0.5061578979910448
0.5128536011876721
0.5335846537279008
0.5451706674094039
0.5474470518782985
0.5503390472048152
0.5587138328279464
0.5598523866515839
0.5492103577921752
0.5519682464058959
0.5524865842974043
0.5586043508612272
0.5565684574201699
0.5428996429977689
0.5293526641504354
0.550896576457839
0.5470622358040098
0.5373089515408094
0.5231786777112407
0.5300269091686819
0.5361555698600503
0.5304026064005558
0.5301874805428372
0.5360095666722142
0.5347310815852462
0.5307489773018361
0.5343344718243433
0.5372463255422458
0.5441814201797737
0.5383774957517236
0.5332640108078097
0.5374417978703857
0.5384064812848147
0.5341681067180389
0.5366654842096026
0.5373627095703118
0.5463385298973565
0.547976878482536
0.543021697995383
0.5533260749637818
0.5712267182848307
0.5760031627235712
0.5777524260341341
0.5873224892700442
0.6228245577979062
0.630420971315899
0.604658253639972
0.5815284846829668
0.5998728366790723
0.6211203342469986
0.6103972359951216
0.565939398310836
0.5426704585365292
0.5357716568360432
0.5183220972214234
0.5025581656629265
0.5020898513120658
0.5102131917603805
0.5005366159233849
0.5020260298888328
0.5043793090437827
0.5111955473910382
0.5093982343642123
0.5009166915985622
0.5019917340318809
0.5015471910519373
0.49288155624541846
0.5507424634321226
0.7068633150927349
0.8005606576156692
0.8163881480306925
1.0
0.9390826119731536
0.4095529981712511
0.11835688886223865
0.06440118936143095
0.02842461841090884
0.029043834325285633
0.04812285920471595
0.11524663055189813
0.2581186200843726
0.40260104913753186
0.46506995059202716
0.4720432069988135
0.482266649452341
0.4936369072101073
0.5020865619877382
0.5025297350070543
0.4935783904017576
0.49109480230827246
0.4931575284235346
0.4852128550703627
0.4646296962820691
0.45598241358979996
0.45210982617687545
0.44342817276783497
0.4241586431331873
0.4099831192331629
0.41745145837025904
0.4138669333107745
0.40636335120905204
0.40292763854630165
0.41026054344998275
0.42623761394351617
0.4373236090723405
0.44790299573737513
0.47554050955607846
0.5023557096107044
0.5123130317450504
0.523465707108284
0.5340174631902297
0.5512257276721023
0.5580869644809182
0.5568537619926102
0.5541031796285611
0.5662105849264706
0.5616966309686705
0.5526750921714159
0.5546033254360847
0.5617953151768322
0.5592800575488652
0.5410847957806932
0.5375573822313757
0.545431698308241
0.5455809183526299
0.5390579811934505
0.5341327071516907
0.5443707774190725
0.5499334466591352
0.5410199291211025
0.5347426596096713
0.5466919297031593
0.5507797648735275
0.5526771303067709
0.5448459247178086
0.5475726403509391
0.5537784942956853
0.5528867876710667
0.5510268479763514
0.5531157312925711
0.5613768034718974
0.5612760003473154
0.5564247070421415
0.5530673079045345
0.5610527613032052
0.570864260437625
0.5737917803719678
0.5721382176543672
0.5908791714433763
0.6079861019267186
0.6094510532796344
0.6136476967155458
0.6487729808979967
0.6622308911336272
0.6351270799458049
0.6163132254751175
0.6360435267624799
0.6702132670194862
0.6388055524023164
0.6028238884651649
0.5801563995530279
0.573162922254588
0.5624803097939648
0.5516866201715207
0.5503320181984632
0.5590942496485221
0.5559353855897251
0.5453559303600566
0.5506274956388932
0.5529698134812515
0.5565206103317111
0.5526847899706073
0.5489104915795799
0.5410178403054051
0.5634542367008545
0.690765017902701
0.8761377097289896
0.9179778935409313
0.9379555189894674
1.0
0.9661616506831537
0.40328364745770157
0.11383650761571946
0.0704595664969796
0.027518013090485204
0.020698420229701052
0.04111074178943284
0.08239400936896502
0.17731222888755843
0.35769673892220694
0.4735490413952069
0.5046241618717076
0.5115195283476067
0.5166127827304076
0.5331278935444519
0.5314074284069991
0.5197790044408162
0.5156238049771802
0.5187417569500469
0.5180331747748059
0.5000161873478286
0.48410134018537276
0.4735782148503949
0.4714631576607576
0.45290547595122616
0.4310604308091922
0.41493346757105803
0.4252032526659007
0.42160377041692615
0.41777367140662724
0.42534023724190534
0.4487507061014216
0.4600695298523327
0.4702014781622353
0.4947912890688165
0.5196055755246058
0.5338575096792247
0.5484280550252001
0.561927288957874
0.5734621220147728
0.5814932673625204
0.5724543974689589
0.5750507214022086
0.5865187892083299
0.5927571783454191
0.5827156099492423
0.5783537333421918
0.580484141250141
0.5889739482586348
0.5772374105425326
0.5665882096439127
0.5722850941709242
0.5728562297497785
0.5669557811581837
0.5579661297424224
0.5638113356756504
0.567096846053625
0.5699663241267515
0.5647382844249361
0.5611811082658946
0.572994678660477
0.5787295456299524
0.5671083395263153
0.5648712804561173
0.5718784383926787
0.5772133671502553
0.5739432902570123
0.5738330846133162
0.5797860844754321
0.5811845991717454
0.5819457542323235
0.5758592620709992
0.5825714317878744
0.5869439276987218
0.5856630621202508
0.5914464328781364
0.6074756358480429
0.6283179266450982
0.6261888147130175
0.6350343025477629
0.6670831919308233
0.6750455371604851
0.6488610536411159
0.6296379913870398
0.6513959406159102
0.6768028390585588
0.654210855459591
0.6100610492350922
0.5872312406181847
0.5802437608534337
0.5657788755492864
0.5575835158939288
0.5551019461372959
0.5589667220325897
0.5591089104460163
0.5556220007973834
0.5422543916202767
0.5530033686640875
0.5614273627577222
0.5625493186861137
0.545979679485144
0.5301583983938187
0.571652044995572
0.7428818475239514
0.8512042373670781
0.8497891948854542
1.0
1.0
0.7306188760796266
0.27622959853154994
0.15983565737230593
0.09578316766700397
0.05257676473317607
0.05137763909098973
0.07880909490827967
0.13721207170604283
0.2740076028344168
0.4125603891604899
0.48584840201206436
0.5050574825717619
0.5135322589451252
0.5182140136320631
0.5283294049496249
0.5326616174730907
0.5294371786483578
0.5177415651855405
0.5119106383998988
0.5068042154498023
0.49404410318619946
0.47135871729840684
0.46208589235431863
0.4583291347226665
0.44448500507593963
0.43408535438017487
0.42234566754003644
0.4267591829267962
0.425703002324723
0.41345541036312394
0.4203871423983886
0.4431328722191573
0.4588591080064958
0.4675793640406115
0.4862059490233901
0.5157085942893453
0.5386403317293373
0.547794934344788
0.5534243901782828
0.5662895272635357
0.5817744754993455
0.5753711042913091
0.5706778150233189
0.5759952874490744
0.5827789621289365
0.5827208450760619
0.5724045930990455
0.5703262386078075
0.5779100284018213
0.5684732338890385
0.5538375682323182
0.5480059512914705
0.5600664178433743
0.560357769165889
0.5514420268695559
0.542558400240505
0.5505658832936005
0.5610296939736971
0.5577527934979847
0.5549935037825047
0.5607718401760333
0.5662671364883181
0.5623158975111855
0.5547181318088289
0.5666400404494258
0.5746637254592374
0.5643708968971884
0.5521888251262292
0.5560747389061657
0.5730972361392299
0.568224246561776
0.5547975147820312
0.5673501810992005
0.5900547149112407
0.6008447289502361
0.6053026275141666
0.6099111777209767
0.6397783792734224
0.6670935959207109
0.6469100344486689
0.6201315139732809
0.6107278734559978
0.6284328349620018
0.648358103067285
0.6180998038838592
0.5821986577358473
0.5628710122479237
0.5418551799815148
0.5236472145162168
0.5261248022343482
0.5395778762107406
0.5305409667688338
0.5201967533041578
0.5168299571181924
0.5242969208958602
0.5227379336562306
0.506919742048675
0.5204137667730472
0.5253912131745472
0.5131415015274982
0.5539175864453652
0.7171734579270385
0.8293516310717909
0.8201101490749221
0.9661012474762345
1.0
0.7535758091068523
0.2465717687205952
0.08492094292964794
0.019743566055048144
0.0
0.0
