MLII
0.5
0.36510184810468094
0.5
0.36510184810468094
0.5
0.36510184810468094
0.5
0.36510184810468094
0.5674490759476595
0.4653637173011919
0.5674490759476595
0.41840826244564455
0.563700967689226
0.4575337167167254
0.5276025834836037
0.4680508687217225
0.7233949870292065
0.7239951507739806
0.8254715833290358
0.6925285011717948
0.8690515368467591
0.8260954549547147
0.8316823401949034
0.7895710060741093
0.9031764754497914
0.9745248278357217
1.0
1.0
1.0
1.0
1.0
1.0
1.0
1.0
1.0
0.9455924084408263
0.8489287481748639
0.7346802643595958
0.646170276175228
0.5635409941774802
0.5220410574911176
0.49895910694897
0.5023467289695147
0.45073283458086627
0.4325509240523405
0.44507176582277114
0.4551427921015206
0.44703091588622107
0.44885269208905915
0.45706095609972425
0.5006486972200027
0.4675978405690578
0.49572716642437076
0.5078790462818275
0.54302683836731
0.5431587491600507
0.5070267726337035
0.501727734610176
0.5796185038693408
0.5665602134303127
0.5281900616040786
0.5031033288159261
0.5447081088056055
0.5333620580838639
0.48907520278651495
0.4520610064195066
0.5163224507591202
0.5015736151025393
0.4903146717391101
0.4460978127327622
0.4784974953877995
0.4795773764908483
0.43914675232989164
0.38798476947054034
0.4273360118150344
0.4652394148666235
0.48050207256896516
0.4302062986629614
0.46327118830734504
0.5002895154353562
0.5070967429836636
0.4652127860966481
0.5404907781763632
0.6798597691264703
0.7790366805290679
0.8201567365462343
0.9980605593336251
1.0
1.0
0.9920674117947248
0.8644867280959044
0.5991408605439138
0.4742526681629343
0.4244047561271612
0.40871868083129537
0.4102177898751137
0.44103546975252944
0.3902790278016045
0.37947918425299926
0.39937188679518754
0.4444730589545002
0.3970724345053937
0.42025976793580033
0.32743928050000004
0.4773107527953636
1.0
1.0
1.0
1.0
1.0
0.260013588769809
0.553631851503293
0.8118840071726577
0.5874779800595649
0.4158643070480159
0.43237491435496844
0.44665095794947557
0.42702162484277517
0.3944357599744186
0.387487461534003
0.3978275922851401
0.41539603511774414
0.3922359667130628
0.3784809791039594
0.42140368278921814
0.45170855488635314
0.42698674890138255
0.43317153859214647
0.45831365689160064
0.5056594944724868
0.5089507329671726
0.5050653591636041
0.5368862079507345
0.6030486650842979
0.6429572002286944
0.6486023203843522
0.6897706457129836
0.793960385098614
0.8615254223857022
0.8798996093105409
0.9924034479009822
1.0
1.0
1.0
1.0
1.0
1.0
1.0
1.0
0.9653057191278125
0.8967316401508318
0.7786118076649833
0.681325163741659
0.6204685032969572
0.6097175672076427
0.5571282699262832
0.5158055468702181
0.49750479148723814
0.5021467024303602
0.4952813577611317
0.4771295440211004
0.4779373220970105
0.5339577238950423
0.5358950730667673
0.5176500318754271
0.5500609030368394
0.5600348094988659
0.5614189653399618
0.5612200283853859
0.7515359189177115
1.0
1.0
1.0
1.0
1.0
1.0
1.0
1.0
1.0
1.0
1.0
1.0
1.0
0.5949446907773299
0.2822021069811557
0.2906022339481178
0.1270660208221781
0.043361916562715395
0.01128084139350971
0.0
0.0
0.0
0.0
0.0
0.0
0.0
0.0
0.0
0.0
0.0
0.0
0.0
0.0
0.0
0.0
0.0
0.0
0.0
0.0
0.0
0.0
0.0
0.0
0.0
0.0
0.0
0.0
0.0
0.06107071124035572
0.13987053512022674
0.20657238526632452
0.2547387999989891
0.2515663988062962
0.23950499629496735
0.2642740157049519
0.28743100862608356
0.2825129690509155
0.2783514653335743
0.2840012800626211
0.31021712856878125
0.3223099668476889
0.31990473219831994
0.3296200030250901
0.34281619232692406
0.3453246541839599
0.3494596692075778
0.34912277916837936
0.36348438887634643
0.3666337714793169
0.3649904853597848
0.36934059832853033
0.39402922137017216
0.40757396635954607
0.3980059376547119
0.3896747376441002
0.40670250732947
0.4041607600625001
0.4026416015363258
0.4079430025287233
0.4062336269878342
0.4206486054171516
0.42038141637958726
0.4142977632308759
0.41872335351611467
0.4333855374793637
0.43062755654007845
0.42919535712467083
0.43035458873166343
0.43630473784459023
0.43560909469126924
0.4364914038734312
0.43290944465374726
0.4422810363781827
0.44773979733055896
0.44116565368008087
0.43333674028804997
0.4379191028634553
0.4440217179209426
0.445154706559814
0.43674155481151156
0.4448547964059764
0.4482546903187573
0.4466117425987238
0.4399561781221191
0.4397219531587827
0.45083065749984746
0.449855648180984
0.4378618085771754
0.43578820331763674
0.4479199792635418
0.4530316828631566
0.4434780371136767
0.44265743875018976
0.444853140087098
0.45261310339478794
0.4505069772790116
0.4514191437042254
0.4614704860273415
0.4684209791618147
0.4502624004484191
0.4464581080741861
0.4580241505079341
0.46389516222824445
0.4608040719817025
0.4546965871653236
0.4580327212116762
0.4748582842546577
0.4711123961036455
0.45320793718562113
0.4605897988482338
0.4734933538977093
0.4690362651424419
0.45654459205444164
0.4463544626814702
0.46495451231775176
0.4738469946320049
0.457062944369144
0.4557604256436901
0.47060739068460133
0.47403105233312515
0.47192386646575246
0.46121446941119426
0.4813700853824702
0.4853261411746967
0.47131891501657697
0.4685320869247164
0.49097428518257197
0.514485027557283
0.5356214242485742
0.5558585357774006
0.587786668386433
0.6448925481473581
0.6983900547601858
0.6645251810117301
0.6573905270066056
0.6389003189735398
0.545476425003675
0.4674663602589395
0.4661817487678867
0.48088902012012724
0.47300576595602706
0.4511476552681308
0.45965346581535327
0.47067708834340777
0.4833697701898522
0.43679981527859024
0.4402244682739037
0.6730055868579868
1.0
1.0
1.0
0.8899730609140732
0.4023937950447108
0.5861745978142616
0.5700017034407172
0.48303130735887106
0.47111120941127843
0.4611572432158112
0.4468007791314876
0.4437580544133077
0.45250970197518986
0.4523914252816616
0.4335265728296183
0.4431608815173889
0.45127708996826355
0.44166712271713776
0.4315232911671276
0.43773929232505554
0.45443288650254665
0.4626239703247667
0.45228839021837
0.4669561515288967
0.4809297366894486
0.49533410611754264
0.4918180915340418
0.500745950686169
0.532894477428045
0.5542372940340358
0.5653620970645635
0.5816264077597703
0.6203377561786956
0.6571963155830198
0.6806183395832812
0.7015397098278255
0.7394939252772431
0.7782298682132632
0.7906621486453193
0.8044044327978362
0.8249516866365294
0.8304152954405571
0.7930326650910537
0.7490866959058758
0.7095059866353542
0.6738233140450676
0.6283496293033238
0.5923253866180739
0.5724639383430083
0.5759423318548615
0.5694421347892671
0.5374351087861711
0.5291977983071045
0.5509403555408386
0.5487473944947026
0.5438467381099688
0.5364196264805812
0.5592561505021652
0.5674490759476595
0.5621979859468003
0.5591453767770939
0.5625006669651851
0.5661815215077312
0.5603199457307898
0.5545564209649319
0.5511100287740247
0.5736028996793466
0.5471357400110326
0.5366812751479859
0.5315910705929418
0.5448320332525779
0.5407116475132574
0.5197028449671044
0.5157371200995936
0.5137356314387773
0.514635998178895
0.5017458248232081
0.49106368084946767
0.5072992989596287
0.5125264472861688
0.4925993155510917
0.49279544662367547
0.49526665240028905
0.5018397567785611
0.49657468893784457
0.48366194006797303
0.5038683637862104
0.5085360133747764
0.49839819692400067
0.4986623202009716
0.5006392269243778
0.5134289540362031
0.5208757974098257
0.5197825262406959
0.5641539997866928
0.6082401711189112
0.6327356591467811
0.6630418646155437
0.7313862429879865
0.7504303354627233
0.7321812690490502
0.7162585083600337
0.6445308955137286
0.5541411523286597
0.5015046160835934
0.48597332992342546
0.4785501831591648
0.4885128325914098
0.48699920804639396
0.48259734184178366
0.47517292550804513
0.48671237843269904
0.5047740029557921
0.5039754258792181
0.45181653418802525
0.46487146162590276
0.7528483947837034
1.0
1.0
1.0
1.0
0.6893117569294483
0.41247489973719514
0.6584250413605297
0.6264202447228969
0.5269462258181917
0.49968322779761315
0.49967337994604916
0.5054640589111382
0.5002589858187997
0.481245262499718
0.4648352738941807
0.47619877824165935
0.4791661475075604
0.47444657102833315
0.4729771462402576
0.48858048452583025
0.5014786157843034
0.49126615926081235
0.4870830058529272
0.49915768264534605
0.5202119822824929
0.5186529411461145
0.5104346212674606
0.5314883291612922
0.560528648417187
0.5651620712947263
0.585526809246923
0.605218770281436
0.6455539458154618
0.6756872900725522
0.7031461679886957
0.7336848599825885
0.7780933790936183
0.8258060872687503
0.8353749543679502
0.8550443112203766
0.8976443715562205
0.9225352140857114
0.9228259647506272
0.8969634399730305
0.8659778801825283
0.8220958509542735
0.7477248680609647
0.6853753408901164
0.6440161678356092
0.6176692953231543
0.586391457857068
0.5543844987728817
0.5316723000840748
0.5389660983724383
0.5354932932238474
0.5156285555430064
0.5095322659415135
0.522964278764004
0.5189912697452085
0.5041482285335956
0.5080075181867516
0.5353514797118727
0.5454895741428581
0.5209514463791507
0.5249928819799841
0.5370371672295084
0.5462974009952579
0.5428719516827623
0.5146195399261246
0.5305254107801506
0.5384309128441866
0.5225884484527434
0.5123331337920163
0.5093631819893015
0.5154473787866044
0.5009803689747762
0.4925088898042874
0.4977314516489953
0.5095304489308472
0.5014710715366192
0.47303083670283996
0.48035898967506646
0.4900503373291619
0.49550458711720813
0.4789573213221887
0.4802904728197202
0.480939659958853
0.4881362356385141
0.4702936598060086
0.46349670276412924
0.48028213723969043
0.48868449815911036
0.4968271480343021
0.5056741929430135
0.5465360611150445
0.5994159370221246
0.6188329326753884
0.6878300987716391
0.7324253916640919
0.7281197287683234
0.7137820551296692
0.670049886909311
0.5662896484004977
0.48479082399728385
0.4563731486138224
0.4292493724876267
0.43200517661028764
0.43762742632183765
0.43361799338240015
0.42374365857523416
0.41191365542650454
0.43186323340774085
0.4481404632818908
0.44145673858043233
0.38473197398170295
0.42438628908321824
0.7846135713756797
1.0
1.0
1.0
0.9927096760913571
0.30422572645626095
0.5223038867199074
0.584075282849806
0.4745913489120045
0.4252124682506568
0.416352426063406
0.4015641132365369
0.41805792330980374
0.40496265236191287
0.39758549681844124
0.3911219254191821
0.3984311289576722
0.3982046891918068
0.4005075618989681
0.3857160961121688
0.41416197689546735
0.4160549544910558
0.40725453983332915
0.39969224281528887
0.43292592020837334
0.45001780524282997
0.4452307006244981
0.44882640352307385
0.4895709069670643
0.5165764146686028
0.5360024620428058
0.5368291402948082
0.5798204773546083
0.6477031675226619
0.6749346473357698
0.6924049756156642
0.7257961967800646
0.7760748020849183
0.8120832916889567
0.8168439694934199
0.8308946817208163
0.8494028881730561
0.8348058280396191
0.7725877054071126
0.7210060742904801
0.6692424173133287
0.6167573264151047
0.5467796929363604
0.5065087819050229
0.4813554311998187
0.4625947749979463
0.4344229873742055
0.406677116491229
0.42201820040337223
0.4230724045420028
0.40396378883080575
0.4026731689282325
0.4108044675936924
0.4398567688722516
0.43231820411554756
0.42427795852663425
0.4300808807146856
0.45319513648243204
0.4573597566281441
0.4446986539043971
0.44537201725831965
0.4686729227331498
0.4734318944893404
0.45565107633772756
0.44141211309735784
0.45937356994404477
0.4552425266757595
0.4365003113537803
0.4408956132299907
0.4506153561261974
0.44878205264482646
0.4328577498685161
0.41329011883371713
0.4267361839354555
0.43263330659967314
0.4285797608059069
0.40866850913715763
0.41087950690301833
0.4289067624327207
0.4269512767847172
0.4066510394375339
0.4105894440348187
0.43391213969576414
0.4552796059010923
0.46849133531363646
0.49587695541637034
0.531516480654858
0.573818144788363
0.6319968568767257
0.6792558941438948
0.6738413635314926
0.672793469767894
0.6123892925700214
0.49550714875705576
0.4167367586738903
0.42113731955897754
0.40661566238422503
0.3961842730934359
0.4020628987459012
0.40398838296009726
0.38799487924921167
0.38805618996566044
0.3930961625781502
0.4241661128714565
0.39707700473437246
0.3796717929749353
0.5978705262754531
1.0
1.0
1.0
0.8871228302983806
0.2873348915638294
0.5352902981964837
0.5370103907129378
0.43067463455940835
0.4098155137710638
0.43706833570849357
0.40949220078079096
0.39583793602068507
0.40139477253677996
0.4152298046956007
0.4061143764894233
0.393338754399756
0.4073433854975323
0.4222043960099688
0.417440648177965
0.4215203788648444
0.4247543526356418
0.44649862401939355
0.4613418731221991
0.4691595954586981
0.4824069543141348
0.5125019088390255
0.5304825758608913
0.5258636991991416
0.5554990073861948
0.6098660566304834
0.6442323660820447
0.6812776370031692
0.7268113967535046
0.7780732943262848
0.8167169290193506
0.8444106752373063
0.8624707294389561
0.8806468825679277
0.88851632097094
0.8417901151057444
0.7735518277833494
0.7175448186675183
0.668453899841307
0.5995261197174182
0.5548085312713613
0.5220881320213882
0.5125133926438158
0.48934790719013044
0.4727327788013061
0.4603796964131118
0.47928407997125627
0.47479977817249247
0.46523257528267853
0.47123090090887887
0.4994103361169083
0.505033589586121
0.49165370465014435
0.49927692017345204
0.5148622829813378
0.518873922114689
0.5065511038106332
0.5106017717076136
0.5294105272025175
0.5353297725985031
0.5236578480287835
0.5116441041053323
0.5127997758622415
0.517465740896333
0.5121073903462483
0.49952264307922184
0.4895804531708235
0.5103895487126764
0.4976442872317951
0.49153169195785223
0.48305791315353996
0.505035847920873
0.4901620153284171
0.47789970563013595
0.46770692306767503
0.487835923935112
0.4916926921211185
0.47620648794757453
0.47186264648905835
0.4903640779262428
0.5033593768780182
0.496461324431002
0.4841266222241921
0.5225788235685659
0.563797857264665
0.5818499907329538
0.5948082976676038
0.6437061422983147
0.7280639487235985
0.7686200181225524
0.7268223890062236
0.7232284259825775
0.6952787205906892
0.5734570896059777
0.47312510066010444
0.44895483265931907
0.48399944119296867
0.46757666615239646
0.44868527677527636
0.4401133357066932
0.4568967712112787
0.4645749232438816
0.46493501730990194
0.45992986502461
0.46896604973274314
0.444564966485869
0.42762736821743125
0.6314456346950851
1.0
1.0
1.0
1.0
0.48217778206292594
0.4623458756158061
0.6573843051136434
0.5356971124060859
0.4636167936203077
0.4834281897584023
0.4865840005498813
0.456003519477017
0.44762088797344024
0.46121656427254437
0.45523880546109474
0.44541047895635105
0.4422181115749099
0.46239227976391506
0.4596531366914699
0.4445447553120633
0.4398900278684697
0.47070614376535297
0.4887840820607653
0.48475433727925443
0.47528492204738837
0.5088818123493244
0.5111037433679617
0.5206225595658526
0.5289705220972677
0.5533391854402778
0.602073775412571
0.6280856470038338
0.6406262561926722
0.6811416732544873
0.7490173535752656
0.7883758598115008
0.8175906555120912
0.8539651502009203
0.9024754793702998
0.937871298033004
0.9391689465058402
0.9155198961944813
0.8769766792180521
0.8225617799197142
0.7377973444824422
0.6650936869146282
0.6268244824759331
0.5983760796768027
0.5421495724466727
0.5067483786478573
0.5062335330461758
0.5134587483392942
0.5046294836505242
0.4902330099726756
0.4773535485198141
0.4997033247412966
0.5025615619803054
0.4958201192642734
0.5020500643587482
0.5151250533813407
0.520763863870543
0.5047029252262502
0.5195997661504275
0.7029286832971103
1.0
1.0
1.0
1.0
1.0
1.0
1.0
1.0
1.0
1.0
1.0
1.0
1.0
0.47766575580642445
0.3476770030242629
0.35899851628612656
0.2822365042420279
0.20627641424324553
0.15832462258613722
0.13404789538950598
0.11103569853215149
0.0973744446965064
0.059238522726235844
0.031010219555929374
0.027809386144837234
0.023033188027930772
0.018702436498506447
0.0005557687302274239
0.005496705775263599
0.024439778245606725
0.018682194698009802
0.0
0.0
0.0
0.0
0.0
0.0
0.0
0.0
0.0
0.0
0.0
0.0
0.0
0.0
0.0
0.057314925975936945
0.14023802277232403
0.21283303923881774
0.2588165118137992
0.2895515678790095
0.29758145818296994
0.2902881419734042
0.31029799192505403
0.31375250665190063
0.3093171143812699
0.30778340575091806
0.32331285048276415
0.33904269164338346
0.33332593221208784
0.32995843631130606
0.3457839641922737
0.3726482397667154
0.36781570148011433
0.3595661102712989
0.367297935623158
0.377804520701644
0.39075498501147893
0.3841189049047663
0.3834551292188686
0.39630169968674533
0.40854888441253057
0.39882015645957736
0.3930024234814467
0.4125296957701474
0.4323837466936048
0.4224133862010569
0.40905822741804576
0.42468517023573915
0.4383831654080329
0.4273015961084319
0.4291877462957948
0.43764065629747495
0.4516706726822589
0.4451461097200248
0.4446371301185058
0.4470015315899477
0.4632671024867401
0.45747628061213863
0.44564305486650574
0.4511196801023223
0.48291435919732245
0.472682060078916
0.4559817707739402
0.45516909301493624
0.48571319079115194
0.48883111071569696
0.46849184486822953
0.4761498062587862
0.4936045345850236
0.49767816680287214
0.47888542154783914
0.47693514139597226
0.4945890965633411
0.503333534911438
0.4906642232815043
0.4816199682730148
0.4964009657848981
0.5051002218959277
0.4927532023799787
0.4860553586941796
0.5022093357758998
0.5005943818062216
0.5013186376282448
0.4883626950244461
0.4968175697925738
0.5083883062330522
0.5171912325675774
0.49815526637793095
0.4939085262801058
0.5153211680955465
0.52120964891107
0.5123078949510986
0.5083054327411403
0.5214691464101566
0.5402101693971408
0.5184053321237295
0.5025327297688538
0.520818904264433
0.5381509943480938
0.5356484128320864
0.5209229694856413
0.5182134185124921
0.5422280593590827
0.533620053005408
0.5166586406960324
0.5399822655529939
0.5435062571935726
0.5511843093355663
0.5191400555921983
0.522980105746434
0.5559193591224361
0.557502942834783
0.5431831544859743
0.5512612814476999
0.6013719671220775
0.6322976390289619
0.6373495085309211
0.6997163053525954
0.7932691453292758
0.8237949268983398
0.7817088526339026
0.78091610025555
0.7403044764024184
0.6322848057780095
0.5431714940536885
0.5343375017111036
0.5375244579638171
0.5511082131030408
0.5326873110620949
0.5264954501480433
0.5303428384606572
0.5457352808564206
0.4977627934648474
0.5090016414658343
0.8335439922154608
1.0
1.0
1.0
1.0
0.5013946625565702
0.5990208693120674
0.7062799360888415
0.5744073841565285
0.5172293385699691
0.5403536409009481
0.524570940057366
0.5016524308184362
0.5054431887847205
0.5210012538735949
0.5010300033433316
0.4816479125507661
0.4936220570900491
0.5143818234417431
0.4986870933035047
0.4795137328678568
0.4995797277131965
0.5139384210520908
0.5124061201371941
0.501574047828144
0.517027950981648
0.543369493715126
0.5573889825090067
0.5539773667447568
0.5720497041750785
0.6153144959139211
0.6359590373009122
0.6393278329690252
0.6677788216498842
0.7260520396293945
0.7658138007809997
0.7862124969429419
0.8075247306692788
0.8488494175868986
0.8858699224904807
0.902164904751794
0.9127174974633961
0.9512980034066206
0.9635600427318437
0.9520191833366969
0.8997887834166705
0.8601022867636804
0.8209087594175166
0.7684859155663617
0.7069565441467324
0.6638693766657691
0.6565203501608238
0.6300208601236884
0.6016417128749048
0.6034534275159499
0.606787408348905
0.6139411800304682
0.6006171023708692
0.5966776605975059
0.6179786165826889
0.6232768492962856
0.6142976390730275
0.6120880166881159
0.626539260851114
0.6275685271352
0.6159672040341515
0.6026440509006747
0.6070898791602913
0.6181472859614174
0.6004803375198746
0.5798085092101088
0.5842407423700615
0.6076781367107108
0.5749050184265656
0.5649820559992925
0.5674467278718451
0.5847162759128496
0.5618747983522682
0.5378985603424988
0.5299534145241104
0.5368565447140784
0.5452313682592906
0.5284478578646241
0.520805360711128
0.5325202818782359
0.5459130938153527
0.5307688061333027
0.516069690281929
0.537565570092746
0.5426910775678805
0.5318988737765113
0.5126374815461433
0.5349947094151255
0.5368731692983049
0.5367458979984477
0.5329457849807465
0.5680070613178427
0.621458390857257
0.645763444006352
0.6628222665108694
0.7120831432972834
0.807589672541328
0.7933609787919205
0.763073470914267
0.7571409656008471
0.7214996108780806
0.611505086390835
0.5305699734499978
0.5182894056981924
0.5288448141170092
0.5179274586850833
0.4909086732693651
0.49624793471470136
0.5103128536931969
0.5198316394019923
0.5147256276972889
0.486244270458246
0.474732976005673
0.6617261131041096
1.0
1.0
1.0
1.0
0.5700753037002265
0.48272258220396747
0.7000023684805123
0.6179183242115848
0.5304906036114833
0.5148532113983038
0.5132856701551601
0.5259673434397001
0.5111512827974642
0.49614883602922666
0.48923111932091545
0.5074312753344352
0.5199585589749947
0.4990954238580101
0.4941899046848698
0.5129775008358249
0.5267581836941594
0.5144102074400053
0.5006527704362261
0.519844147827579
0.5568214052380882
0.5571107863430356
0.5587554771286827
0.5722011406720445
0.608618032717799
0.6282431988852378
0.6488969945745862
0.6739916113005332
0.7310660609165636
0.7809810604752735
0.7978128323284379
0.8298610229423107
0.8969618261525533
0.9327472807028773
0.9414498940562336
0.9479423074501966
0.9616744098431689
0.9433378605442911
0.8863911891835047
0.8279057120524035
0.77400628979856
0.7218575752943026
0.6604163947460913
0.6102399047892011
0.5929402565288328
0.5771877184582042
0.5485786465372519
0.5353156009948602
0.540035655675478
0.5490359985815365
0.5504756440004923
0.5315187854162863
0.5206279447531988
0.5590364724891207
0.5599180756347724
0.5420941146827307
0.5352840511457411
0.5646618013692912
0.5667048268600189
0.5573118920705565
0.5385923376963023
0.5614243445210492
0.567422507976471
0.556024826228222
0.5378120541085571
0.5564494817692469
0.5627736594582189
0.5330405534107248
0.5191330972089092
0.5301608499268713
0.5426064367163692
0.5241044670123036
0.5090803005096658
0.5206097180192881
0.5361339543216819
0.5259609764206848
0.5127877656635358
0.5187561073676531
0.5353958671245523
0.513257665296913
0.5074529722987056
0.506223111514938
0.5311443516333874
0.5641332771998249
0.5790543132983956
0.6037192494949727
0.6458102165013399
0.7203311722115011
0.7716640805866566
0.752521488171048
0.7656158644262046
0.7377794027647131
0.610877917625731
0.5027278744818601
0.48790798863801976
0.50522004324636
0.4892034187470989
0.4639313938320391
0.47170977734263075
0.49047063699594495
0.48017520385172296
0.46464263951630913
0.4617500673847726
0.4509581859382509
0.44506427017658
0.6453907172803856
1.0
1.0
1.0
1.0
0.5786845511852649
0.3953003845176289
0.6656909899610829
0.5733605604737306
0.464563424197022
0.46984612214010635
0.4818847457145563
0.46038709788106846
0.4383916243841572
0.4442639213245367
0.4675990077243795
0.45231202294130357
0.4348607882612023
0.4297424057282037
0.4578839307678022
0.4471866829393919
0.44652733843976533
0.43835460520087033
0.463045351753345
0.4578136464575399
0.4650987389101092
0.4622086557342079
0.5107766858555054
0.5431692198963693
0.5381631265334689
0.5446098530639006
0.5889782196208435
0.6274803853258086
0.653604140582899
0.6968270653157962
0.7592385848136428
0.805960274825216
0.8344873789768217
0.8567018427436623
0.8901778437721977
0.924090923326992
0.9111062093514611
0.8633862246405407
0.8210203795342326
0.7751922428143649
0.7062193335623193
0.6276355259663497
0.5764915783389999
0.5552084834031494
0.5179391268844544
0.4797976948742371
0.4665452804201472
0.4716236749764218
0.47831782135437956
0.45551351730333983
0.44091856595122747
0.459455018007361
0.4706016217641092
0.4630585346557855
0.45578618952522343
0.47666169727041463
0.5063163485620101
0.4912313737501142
0.48489800201653266
0.4878779557197155
0.5025749538248627
0.49771946679913215
0.4842627470656236
0.4809511189360804
0.4968001885337167
0.49012834211683776
0.47558659667198616
0.4672561031715632
0.471265989946557
0.4749864494823817
0.45469570886086863
0.45007984879774676
0.4669370122529527
0.46337015589926833
0.450887842549695
0.44987410951609574
0.45091974557122005
0.4558258034044398
0.44319211332907626
0.44357561174345744
0.483665466768653
0.5416872071285987
0.5655639487402665
0.5887065768386984
0.6688260237316601
0.7202083311798282
0.6916456895124734
0.6709247217067247
0.5974669120647204
0.5036995075686812
0.44724046884319507
0.41607012378206765
0.41883773991157397
0.42295199203846545
0.42259954962180757
0.39885206793388595
0.39724637131432594
0.40680119660046216
0.42214550466619416
0.40320711168702605
0.4071144552509958
0.3861203716480035
0.4312384472624335
0.7280077842651964
1.0
1.0
1.0
1.0
0.34314916162454157
0.47480952289366013
0.6290508020205825
0.499492320261698
0.43097476450125694
0.43669506296188365
0.4493347894606753
0.4337802449505362
0.4177031393894633
0.4261763576245111
0.43410104889562523
0.43588755621824227
0.4184820432123509
0.4147769439959201
0.43909054862397195
0.45777406866525705
0.43811517857494203
0.42822777069851387
0.45733608941494436
0.4665628276717194
0.4646947407021352
0.47063361020366257
0.4831522311232538
0.5135565024201169
0.5127323029045261
0.5294431560864092
0.5623798150747323
0.6103312764132282
0.6324443561334872
0.6580282196249629
0.7027991947539409
0.7627418815916729
0.8107867804902451
0.8259371122586824
0.8615104100715236
0.9100534395520288
0.9394320528181517
0.9293430282681904
0.9154516363930536
0.8930316691323131
0.8518205626293053
0.7750752529668123
0.7076546730459186
0.6564067346951102
0.6245177764504835
0.5805235637757586
0.5297958567857983
0.5290392518158951
0.5271592194992925
0.5063014212975195
0.49761998507030925
0.4912783258799842
0.4977572380757646
0.5019464988260552
0.48866233301979517
0.5057106001686965
0.5271209092786452
0.5333137600089939
0.5244527340754888
0.5295665176940421
0.546458113492857
0.5548246446479179
0.543785384412559
0.5312994414286395
0.5537197762788785
0.567484304420109
0.554232603369544
0.537408133903026
0.5442280186543876
0.542852799297741
0.530805658738049
0.5231483444141316
0.529168513211035
0.5303411197234629
0.5303038323789183
0.5159939220620677
0.5120267835929246
0.5335292991251943
0.5216635931160791
0.5090069274746671
0.506170281811152
0.5274438654001804
0.5221853815735276
0.5067672099584315
0.504494147395706
0.5225864206593616
0.5326455639438124
0.5147456211138762
0.5387521089886701
0.5980586710556614
0.6290442684586317
0.6467717379323334
0.6982130501676964
0.7835437238629293
0.790603695674481
0.7594889953620997
0.7365631928509452
0.6533177931814353
0.549892773235441
0.4809687136005086
0.4750789601488705
0.476470399285433
0.49135836747797257
0.47504318258787503
0.4605708757641639
0.46410219441531375
0.47862376122378547
0.4813438323175602
0.4782086127745866
0.4390171482198089
0.479661870488003
0.811806618014082
1.0
1.0
1.0
1.0
0.3830985568747085
0.5794682902335749
0.6600491289495507
0.5404040335348679
0.4775654844366267
0.4776299239770685
0.46733256087961755
0.46730450674801427
0.4446989420710847
0.45710389940002444
0.44816329162625107
0.47746583684388194
0.45427042738565293
0.45093453410806106
0.44615638018846593
0.4774453254309895
0.47271170301522203
0.4699661848054599
0.4656453521951314
0.5032198943862446
0.5111184222082591
0.5067402388266297
0.5162048019433948
0.5700112459940444
0.6157174812875101
0.6206215385870425
0.6480982278740495
0.7047867102871593
0.7677238706657807
0.8044815686453793
0.8418995163970289
0.9096971662992642
0.9784619917870359
0.9954544269253557
1.0
1.0
1.0
0.9595731153701358
0.881701968867687
0.7960732996224744
0.7364301686075585
0.6813535937475871
0.6097300494123982
0.5679838914156581
0.5633876686648347
0.5354835625537728
0.5045500046526826
0.48617859199064284
0.5019552018309714
0.5198872240160496
0.49905676927243725
0.48939516892299234
0.5084866161009646
0.5180842194447738
0.5370199562136968
0.5111723932041163
0.5132261180443882
0.5849296827014653
0.815944884024019
1.0
1.0
1.0
1.0
1.0
1.0
1.0
1.0
1.0
1.0
1.0
1.0
0.7158768382029249
0.3317600871429055
0.36622017382031974
0.32007933174639
0.194261480368851
0.14328475138221813
0.12054645404524242
0.10055982970863435
0.07847552401205311
0.03309318180024832
0.04691194216220236
0.07094807639026808
0.07126348519008366
0.055765677989210616
0.07838430017649775
0.10851091270745075
0.06314557752136034
0.0
0.0
0.0
0.0
0.0
0.0
0.0
0.0
0.0
0.0
0.0
0.0
0.0
0.0
0.0
0.0
0.0
0.0
0.07416995799686825
0.16841688037468155
0.22389266050046616
0.2433049248370569
0.26246316672203596
0.2855965720934922
0.2740310392793003
0.26654076904645085
0.2601445994632346
0.2807507217441553
0.2875164319918856
0.2647801606172942
0.27759237992770813
0.3096079646367522
0.318493615626406
0.301698820291589
0.31241032530995894
0.3344137347831636
0.3523366813340601
0.3503595924649699
0.3358180421384034
0.35948496256970336
0.37037669760769304
0.36399751021622234
0.3515620902074135
0.3748707307500061
0.388362140965277
0.37386042217103205
0.36381791211972675
0.3815364500530727
0.39613476824035015
0.39638553835229146
0.37999854316127174
0.395199015771375
0.40322444837701665
0.4166095329517647
0.4043253605592529
0.4050465127572912
0.4211264072823993
0.4256299700518464
0.40768399586755144
0.4049288318364562
0.4273264494876434
0.44841262582178487
0.422376351238848
0.4140627948768728
0.4263954800345132
0.4511940486411844
0.4416517069784157
0.41479309043071577
0.43076504441347996
0.4621885029934164
0.4497815036785437
0.4424258981198738
0.45797934142341196
0.47218691605853386
0.4703432192536453
0.45944682272014264
0.45507649472998307
0.4766212240825073
0.4813479783934057
0.4644866593208611
0.47037755162995937
0.492844077209243
0.487332511270034
0.47538450223615014
0.4668189787094395
0.49172805626544935
0.5057749590284645
0.49836128687062275
0.4915763244486781
0.49686962354767716
0.5115393962802066
0.5102128435199541
0.499187531718076
0.5061020449756286
0.5201496648607998
0.5308737213685034
0.5140187138013038
0.5102077447950497
0.530267246369619
0.527258293401472
0.5159755865837183
0.5107048983565672
0.5280054219780635
0.539839639097009
0.5188546254093563
0.5210350110515733
0.5322330549325456
0.5405698222202352
0.5250657228000277
0.5302398795730127
0.553606738217048
0.5840878016577056
0.6092285148821095
0.6466168492722731
0.6670153582912418
0.7664798995719215
0.8252229304111047
0.7830611107099349
0.7944399820648409
0.805735810708742
0.6944928080194777
0.5677607192205795
0.5240301999482262
0.550671792815049
0.5445206649502545
0.5171207873637499
0.5109078788437554
0.5397905191719278
0.5276192494295777
0.516242614276518
0.48182989037743146
0.5317685676947168
0.8809964624002813
1.0
1.0
1.0
1.0
0.5499499499877459
0.5323286551100394
0.7430084146302998
0.6316792531538898
0.5273953622717183
0.5161288105416502
0.5114586766398908
0.5188061639997452
0.5068996527868372
0.4903250318009542
0.471984965082956
0.48839325270399414
0.49819624651396455
0.480154834887436
0.485083701998413
0.5018052660109514
0.5072395245005238
0.4904498948804915
0.48396582052737686
0.5167693243009813
0.5345876681852684
0.5288929525803376
0.5203715214427928
0.5512624901156518
0.5653592047891427
0.5670337497549095
0.5791632209009887
0.6177834336131798
0.6805206005839943
0.7073340088357533
0.7320710846435283
0.7704363698994522
0.8273540428761639
0.8633455777289589
0.8888966978628252
0.9198426590169131
0.9720731729551589
0.9977377012825286
0.9913923423249713
0.9680563808827166
0.9404561482201949
0.8865499174974694
0.8157106145256655
0.7501611480833217
0.7132671385010886
0.6845590991056827
0.6419128414927704
0.6128276479648436
0.6036641553711022
0.6034727642606639
0.6026706694730536
0.5957370917325246
0.5985506011109992
0.6162617973775181
0.6081416053152028
0.602967447828716
0.6095954792280462
0.6344456475478493
0.6296821622672336
0.6096271304018697
0.6123990360124015
0.6456033049098768
0.642490492197803
0.614273214537304
0.6012740386308603
0.6167294078439827
0.6143995698592646
0.5933541307180561
0.5851951612844204
0.5892564098647339
0.5961289524547311
0.5759163399987708
0.5517701052301608
0.561688441291486
0.5811794898711675
0.5557436030894245
0.5451233998871777
0.5487698975994595
0.5661155737227702
0.5595009879735651
0.5518433900104268
0.546172705923458
0.5630192547239263
0.5533151753923209
0.538134011956338
0.5441420249205033
0.558416955129778
0.5563676570125627
0.550748950924909
0.5768292225928378
0.6344139861126988
0.6635294617695161
0.6900440970819544
0.7664522062300305
0.806121827156538
0.7892752344871716
0.7680353093054391
0.6775799278400719
0.5817226184421785
0.5366751443324476
0.5115119451887823
0.504989059092067
0.5147922271851423
0.5049169591119537
0.5049452084023128
0.48222327854134955
0.49746267923571763
0.5139540019484194
0.5320179931683306
0.4694649476576154
0.4805851585351507
0.819748617995175
1.0
1.0
1.0
1.0
0.39514381681718935
0.6141000112282752
0.6590478903369256
0.5442418517022101
0.5104416137461619
0.5148298775163146
0.48252417020234983
0.49812078834736173
0.5009009243177134
0.4934217318520545
0.47503149437449166
0.4900986202375835
0.49060129972715283
0.47849839743151606
0.4605245446135423
0.4737050468033333
0.4979297337193286
0.5036760447674233
0.4828809543942028
0.49442228928613596
0.5190454328843227
0.5469071678628701
0.5418019610705767
0.5568517904650188
0.5973534651959853
0.6280063289042478
0.655399250616861
0.6868485298989282
0.732812960109252
0.8038487172465578
0.8356792651217223
0.851148485709808
0.8970307846490794
0.9316163998294634
0.9338920877144707
0.9420700127147826
0.9230640327014934
0.9103411375415911
0.845312669636594
0.7596769394643037
0.6832859777352505
0.6502071356461661
0.6040979631021189
0.5465456266940711
0.5124467725863127
0.5179021581220178
0.5058117882860561
0.49324212262569944
0.47395063012436
0.48975276230831744
0.4919538328901198
0.4965994386644397
0.4907272991984379
0.5000418826490169
0.5202871934129731
0.5046376808712928
0.5066358852940043
0.5309308904883477
0.5522745729365711
0.5373082995664095
0.5085256934649444
0.5177323848504175
0.5289817223037963
0.5263568297764257
0.5147610402813831
0.5103199002551475
0.5221188189556643
0.5211735373391267
0.4860092005077371
0.48421879257380696
0.5090928245274211
0.5122292757552674
0.49363547298506144
0.47840829398088136
0.48817044573580126
0.5043335908780626
0.4873613416908122
0.4667175494946429
0.484481398586391
0.5126228423642587
0.51749602615122
0.5400591471186384
0.5746899305376256
0.6192707163461191
0.6449234417876397
0.7141143571547552
0.7662926479358424
0.7593697505406155
0.7497039443213692
0.7072169752598787
0.6035189250613902
0.5132853719501871
0.47361001311458234
0.4594945495249053
0.4523345614770774
0.45652569803394644
0.4461010372479365
0.4430526859626281
0.44497666566875216
0.479475681781177
0.475767561668669
0.43096936146553455
0.4011045046044558
0.5794984059283079
1.0
1.0
1.0
1.0
0.6321142454064591
0.3777627437680888
0.6388992240787936
0.5550736068293324
0.48274895136255075
0.4607771374910847
0.45031970824536793
0.44667594902151275
0.4712002582847174
0.46136077209345194
0.43782851766318664
0.42624547808573354
0.43823544048555635
0.44392511742764673
0.45286143616344454
0.4427558042051082
0.46834113324326543
0.48231938435225336
0.48455869076777097
0.4576471138155246
0.49588549280084104
0.5316001889001926
0.5143332677366308
0.5360299982528688
0.5680703885614287
0.6148775185852078
0.6295708259978828
0.6403172863621124
0.6854585701341067
0.7483895463189306
0.7921625929947202
0.8287750803915344
0.8676922899002151
0.9312698449415631
0.9533894300335207
0.9663492297698741
0.985263879674944
1.0
0.9736705474769805
0.8857916993938094
0.8142914664230112
0.7436925132386722
0.686165110473593
0.6118482443569221
0.5681067032766836
0.5396209194072661
0.5463540927217329
0.5116887972798634
0.4961253371154979
0.4891344737549552
0.5035852428857363
0.49357371267288697
0.46281788595465095
0.4718829087980156
0.5079124240383056
0.5116125605398192
0.5010159228112695
0.5066105091137341
0.5261028159653228
0.5482578465183303
0.534002826530741
0.5387068910316045
0.5569364152442078
0.5649654486318715
0.5425757342418958
0.5331171415782863
0.5444404289539865
0.5465426373510744
0.5171433863321785
0.5004982680517893
0.5099949380483799
0.5235057522891517
0.5119169839575868
0.48568653969002595
0.48910090771098497
0.5016690284420593
0.49440824124523663
0.47684376078174395
0.48034326816232636
0.49922314806073953
0.49558889235168574
0.4624435858559902
0.4590487430519875
0.4974099118818791
0.49288978504789566
0.48119894579868505
0.4859801425340815
0.5653256766572919
0.619067486556211
0.6383855153580309
0.666548234919013
0.7794457479160403
0.8081972228223563
0.7646632233295436
0.746796136339505
0.7212683744012043
0.5915813586496904
0.48409814679367236
0.4611513361200301
0.4544945990596381
0.46085511265709567
0.44607226820135537
0.42683652953421636
0.4354121979121454
0.44051771093044295
0.43816352569104955
0.43361988933986656
0.4476684995439699
0.41619408191576407
0.43669738358609783
0.7792822475620619
1.0
1.0
1.0
1.0
0.3682901643351518
0.5396145074161625
0.6812437341227872
0.5263997172246684
0.43421069490361247
0.4565349961163501
0.45873614488098163
0.4502817347435631
0.42210912791788624
0.437161261052453
0.45506702660083354
0.45199724786457907
0.42545686688329554
0.4351475753964458
0.4521288776401525
0.4591347383148469
0.4438136307692579
0.45399235952166367
0.4623104548538052
0.47623612767165674
0.47620624250956595
0.49643366031400327
0.52871575020108
0.5632089378323634
0.5500739155930642
0.5790854786080014
0.634245642899112
0.693395575852439
0.7329707341729177
0.763171722907598
0.8272592390804256
0.8946649152434532
0.9392078935839423
0.958926136101993
1.0
1.0
1.0
0.9828496144517986
0.9354952775323608
0.8722119235748007
0.799145731668508
0.711095267339072
0.6447601271086829
0.6147199297077398
0.5847907892954263
0.5476860170881486
0.5157313375750439
0.5299018655560436
0.5252184778254344
0.5109589137276239
0.49670281086053925
0.5120510300714469
0.5364575212979188
0.5198139834229125
0.5030603690984619
0.5314167731944129
0.5525316730311366
0.5531642891219367
0.524417210590118
0.529743036308133
0.5606235605596634
0.5534582324294834
0.5388691616709556
0.5149509286226712
0.5365791571817107
0.5389881908150164
0.5248856249741268
0.5104781331387782
0.5267995015032451
0.5307112377584536
0.5128104048095308
0.5073207027970879
0.5196681683617589
0.5094922346295545
0.49666756165848114
0.4853358864327135
0.5043586016004683
0.5166889417754084
0.5020382463644211
0.47587384200030447
0.48845759323222093
0.5128092986443047
0.506868021900845
0.4883857921383935
0.5086147742186279
0.5385094673764427
0.5564420993884749
0.5837674453188579
0.6215470858090114
0.6858580730800987
0.7585217841463314
0.80645045988168
0.7888565564911822
0.8003475505671183
0.7595221814959413
0.6028434557510514
0.4796378915792799
0.48115187888618144
0.48476817376349707
0.4579377418285985
0.44297400321355396
0.4449671969783801
0.46492648703086503
0.4391866841523518
0.4269917274125258
0.44452487076477143
0.48041600705124743
0.4038184053628095
0.424465017371209
0.8482972143275884
1.0
1.0
1.0
1.0
0.2630883849959
0.57018132332449
0.6315005131406319
0.4793337681946383
0.4513491802290243
0.4672321051876967
0.4221337548924513
0.4084320025854269
0.42281715910060463
0.4288821484823527
0.38874333854843046
0.4002198854398773
0.40943499811515804
0.4370797753845769
0.4070478512673802
0.3958593400483686
0.41766343126183375
0.45543703336925956
0.4420438101827009
0.4343769059645902
0.45796453030484585
0.5172412716346046
0.5306002652388647
0.5222680950878203
0.5577824670660266
0.610017401885872
0.6656128513586952
0.7031142148404139
0.7509525431138269
0.8499912729245273
0.9030554933210306
0.9308764623847485
0.9644267918349169
1.0
1.0
1.0
0.9958523910167421
0.9430242304143086
0.863393320913076
0.7558688720487352
0.6579269856319385
0.5937169064697304
0.5532352108058864
0.507871813122754
0.4674830004323721
0.4613907896416249
0.47416969480866766
0.4541010087968754
0.4269225071190241
0.42393875193198644
0.4481020864920347
0.4504742626225145
0.4210372511959536
0.435624349188484
0.4530015910749429
0.44425284373806573
0.4502009441423397
0.4696492299523135
0.4805527807428113
0.4985865415374606
0.48456139847877255
0.45984110594845895
0.48403835128527073
0.5030377292857932
0.48180036234422197
0.4612791957615716
0.45708914918365257
0.4763592827705855
0.458351659243986
0.4312146332533941
0.4247690229691162
0.469148764335353
0.4649866969711053
0.44459657025465316
0.42842410734102054
0.4326493405211643
0.4451563503128274
0.41434285874504867
0.42763060603215636
0.46372227100160524
0.506384598598765
0.523683968259419
0.5475667667389172
0.6031803927258665
0.7095065675877803
0.7578906213380616
0.729445491066571
0.7152324004238778
0.674052061808782
0.534750430405599
0.42691205463282655
0.411835242288792
0.42351469620513643
0.39449932804849003
0.37454575452199934
0.37649985262045754
0.4125581463660308
0.3889227806304335
0.38785070345347944
0.38031692113493776
0.4079703767629031
0.3643618815889026
0.4459969544887839
0.8778620549531275
1.0
1.0
1.0
1.0
0.2510536631321926
0.4947047230770444
0.6030256558220254
0.4452093839452537
0.3716679040799944
0.391744655825494
0.3780098016418827
0.3468258979860145
0.3497134509787382
0.3792149066654414
0.3692983334949333
0.3599274566069316
0.3541303033466788
0.3942829696752129
0.39362577711647784
0.37685807629025997
0.36539559058147636
0.401469907122802
0.4168522251175049
0.40382852009780545
0.4069120967261946
0.4456734052202462
0.47875633653720373
0.4837166452181945
0.4873028733823019
0.5350615684836961
0.5751469603066675
0.5960584161822922
0.6163861046643766
0.6829491598756288
0.7449048041927753
0.7824312077415501
0.818517645193138
0.8854952053923106
0.9371156052192623
0.9540611068846576
0.9666704501705498
0.9715195245669058
0.9718407505648179
0.9071756664069553
0.817213690416632
0.7370371335222462
0.6730378298829849
0.6111990188876273
0.539078134616363
0.4969270629107586
0.4911764229965142
0.48554834704648886
0.4483253949982274
0.42223307816864775
0.44207335719542257
0.44851260663642234
0.4288245915614155
0.4225885028181732
0.427108030007701
0.4701934318376371
0.45557362933306456
0.44104265022117606
0.4576758371080237
0.4826955205139697
0.47194707860855606
0.47256177736779276
0.4898551166477689
0.501380095594277
0.5110532850365361
0.4980231452368903
0.48987911354733915
0.5056143431064328
0.49555802062718135
0.47016812561428817
0.4666547936313516
0.4876030794837399
0.5015742587077915
0.46970862751606013
0.4507184844385234
0.46068334084609963
0.47335887676960586
0.464233389364085
0.44129501420735295
0.47154718837415877
0.4633183479423943
0.4486550488281023
0.43886583562259796
0.4410576488925725
0.4534162911077987
0.4765156049861254
0.44607193119304495
0.4529583816616777
0.4799313126176826
0.48489784886453247
0.46716194456340443
0.49131226466759104
0.5611325013274211
0.615286402482147
0.6126509945925289
0.6842227303020805
0.7809608214666873
0.8320689447335974
0.7700033330747674
0.7480755271822088
0.6666847880451405
0.5471662150502629
0.4572179293195801
0.43832247629644383
0.43768122096865547
0.45346860999983163
0.4494891836608539
0.4332768513709834
0.43508525053613234
0.464690437778585
0.4439054732449854
0.455059754416767
0.4117751423739665
0.42944322144817465
0.7923449113287313
1.0
1.0
1.0
1.0
0.34628802485793553
0.5679712453883631
0.6892273731215393
0.5446223041146406
0.4625316922989454
0.4592944194246987
0.4671735602693244
0.46952963776672946
0.4488289180704966
0.43427287480460863
0.4392398045752781
0.4604779950965111
0.4411853813055848
0.4308060748121602
0.431514601699347
0.4664073951887918
0.46656992897866567
0.44167078628975676
0.43944891708910755
0.4861812881904416
0.50569567973577
0.5103257714095581
0.5171967681129256
0.5643513038213646
0.5997717989309327
0.6124613467540903
0.6525909897681454
0.7170067580568635
0.783134195210102
0.8241325271409645
0.8522376067935461
0.9378533613934958
0.9907862657411387
1.0
1.0
1.0
1.0
1.0
0.9781670609048094
0.9101003361059987
0.852073522009442
0.7652176232530611
0.6715937289927423
0.6238492590626106
0.606483002001549
0.5767191771067653
0.5364428335538552
0.5143914423960058
0.5321333311861298
0.5346199622420282
0.5203165337554745
0.5217495743967586
0.5360089837189547
0.5574960773511477
0.542278168268193
0.537531612918448
0.5518617850239286
0.5794146011403342
0.5710271202669513
0.5609383640771319
0.5788990796826718
0.6025707850242528
0.5941944414291402
0.566567500772979
0.5579835546289823
0.586301502748637
0.5631548370934555
0.5384755826025704
0.5320640778446449
0.5410881937660533
0.5380727861294049
0.5206782170237279
0.5175162191743132
0.5222000269684652
0.5389368423301326
0.5134463410446692
0.503699030903723
0.5188203070775389
0.5341834407790298
0.5204616817437403
0.49451834552975554
0.490525983847976
0.5213088763930736
0.5130742802185203
0.4933237709014165
0.4939168728430716
0.512005197972424
0.539416599782313
0.5337778929931962
0.5792596329177833
0.6465098689500535
0.673805156947147
0.7492013041826088
0.8401878473718675
0.843666563729147
0.8300622850327108
0.7762551946011023
0.6533188531542616
0.536144908000684
0.49898841732083843
0.48754499967071296
0.4595704296971288
0.4583614841245317
0.46150405034871034
0.454645004918223
0.4470116622874764
0.46290550913558953
0.47201809210142454
0.46371987555920524
0.45158006347103286
0.3870178503626695
0.512888296955305
1.0
1.0
1.0
1.0
0.6483245257452059
0.33496352276560976
0.6708466894436853
0.5914415198885554
0.4743682873794917
0.42808728192858336
0.43199878732854097
0.437338000191136
0.43651697419010665
0.42178049834601666
0.41418349003354626
0.4269356000555999
0.43703008269957844
0.4256555964383758
0.4089116666244245
0.43082737311965413
0.4500687263851984
0.45329234338828284
0.44092475678543447
0.4634625151131191
0.48554773592946265
0.48474983503683927
0.49681630987665404
0.5182703499242761
0.5811760035217647
0.6004689182816507
0.6052303805892703
0.6663081256752348
0.746405246270921
0.7992932016612014
0.8334003947292435
0.8827011658159609
0.9609293645816978
1.0
1.0
1.0
1.0
0.9715793921709832
0.8759000852505443
0.7605677526452214
0.6893422720740295
0.6451770646565224
0.5790040603446557
0.5253819786468912
0.5080602309049327
0.49622787441599936
0.47718171167350665
0.44227810922127875
0.4534385023066985
0.4784053986494394
0.4746466356180424
0.45864497467635895
0.47571942462053124
0.49537558535157367
0.501562067080483
0.48633129636674005
0.49376099456579325
0.5104867025521416
0.5250189109026933
0.5181139338425644
0.5064177766682104
0.511222670670798
0.5119120728393005
0.5007560270359217
0.49164741894424757
0.486648840581807
0.5180031824038773
0.48550934969234616
0.4579058558526473
0.4671630868517753
0.48676170031917076
0.48318259844800276
0.46277655004965135
0.45742794892721417
0.4821244466985686
0.4780375275237539
0.4652356880501779
0.45420897331483445
0.46616954187348825
0.48714048588721726
0.5211084379270807
0.5651413172192181
0.6160591199069583
0.6735514620953856
0.7482885265846836
0.815868898829115
0.8126723692425715
0.828694067472792
0.7810825562141923
0.6625268309665973
0.5409806949945556
0.49173898752803186
0.48908374704399904
0.46767017660768095
0.4662975819789003
0.48191170356126484
0.47081930938778793
0.4477687838223421
0.4562455362536249
0.47346369702283597
0.4792031013531662
0.4709016011718443
0.4123109985179879
0.4454408522981213
0.7732717139339501
1.0
1.0
1.0
1.0
0.5068655718282193
0.45720264988330833
0.7519283695710568
0.6317442925992888
0.4976005250343837
0.4902746740315612
0.487444423524151
0.5011839433521736
0.48905380927148034
0.4707636240727776
0.48120635677657175
0.49343336421697004
0.49232697848827217
0.47218918072734894
0.46330873348021234
0.5067980837876992
0.5072874137425832
0.4919034051092635
0.48863115902867893
0.5420150545698932
0.5571563872222292
0.553117084691086
0.5628419270349496
0.6222103810061276
0.6625606161003395
0.669578169936075
0.6849543250024619
0.7423041516175305
0.8026500173591087
0.8482199950020256
0.8882972126457169
0.9588506437573013
1.0
1.0
1.0
1.0
1.0
1.0
1.0
1.0
1.0
0.9382546346347223
0.828203735078391
0.7522188951635261
0.7074392304332877
0.6693478729199447
0.6103067230422052
0.5704529087409169
0.5894232420771021
0.5726708698348648
0.5668424211107047
0.5620269929685853
0.5646145707130831
0.579182234368523
0.5751689564438666
0.5787548252074607
0.6050290337118829
0.6182203647270098
0.6181559903423056
0.6190658555004059
0.7679465002076434
1.0
1.0
1.0
1.0
1.0
1.0
1.0
1.0
1.0
1.0
1.0
1.0
0.9823999002381217
0.41294194067923246
0.4229260179193502
0.3466458312197895
0.21494391135502142
0.1869314463558819
0.14288833250655236
0.08330377954594441
0.07077145640002173
0.05537890622270174
0.027069950877547024
0.0
0.0
0.0
0.0
0.0
0.0
0.0
0.0
0.0
0.0
0.0
0.0
0.0
0.0
0.0
0.0
0.0
0.0
0.0
0.0
0.0
0.0
0.0
0.0940864134143661
0.18467835889181722
0.2210528311034347
0.2753174751997676
0.3108417044249732
0.31024712144873723
0.3003712948226726
0.29408920843267006
0.3209527097528914
0.32315686806127114
0.30289991282940515
0.2816659526963803
0.3117165913163135
0.3338701822781286
0.310558726288937
0.3177136664728124
0.35224505548877694
0.3675999591735282
0.3473196303236441
0.3403043046099666
0.35495480564562676
0.36709980214668236
0.3595798581135865
0.3426915320057936
0.34973146064645216
0.3742230413182015
0.37254535954488643
0.3588372867299506
0.3776581376271843
0.3907809222268507
0.382792561595992
0.36465140473009944
0.36773024363227974
0.38864828121309064
0.39904676014740953
0.38038949744926925
0.3726215469546788
0.393991159605985
0.4120105411413976
0.3882864023108087
0.38534100041570424
0.3953902376776363
0.4065237337936245
0.3869153648922762
0.38410004122555064
0.40528733435972547
0.42683149737678816
0.39030332917635746
0.3844736591212242
0.398636804604573
0.4133806626135869
0.4196234728775134
0.40281845415187767
0.40160544156636063
0.4254315369482621
0.4211025724661176
0.4258643141038764
0.41447986995494696
0.43000401132989075
0.4372066810604129
0.4192725757126876
0.4133775955148498
0.4352721713795081
0.45254359960953583
0.4309011383598051
0.4221451287898758
0.4460486508222445
0.4507469893542032
0.4249934672350931
0.42463606711421376
0.43859464495752737
0.4564074664022912
0.44093885227299073
0.43053663699736094
0.4559525528637206
0.45816733604326576
0.44964635044700907
0.4377206556313823
0.4348808784237403
0.4524729962004318
0.4724266897878951
0.43253498886831954
0.4450056073654044
0.4820468651599043
0.48136776975552553
0.461243228018568
0.4481964058324765
0.46912159783937135
0.48156473327659366
0.4742873684554265
0.46758245962950856
0.48407161821375944
0.5039552270379228
0.4906158832879289
0.4528848745347866
0.4672384829142203
0.4883451206624273
0.4785086512256994
0.4847970433758431
0.5309778630670389
0.5965190924583003
0.6076448484906048
0.6257299817340355
0.6905040327540342
0.79029144477421
0.7899034697487702
0.7630069596930845
0.7632543368373664
0.7128760361726378
0.5689845429776259
0.4625722130392389
0.4425366013384762
0.466347828221653
0.4722784931336731
0.44774266993746775
0.44930846020272047
0.45971454806789885
0.45474344795275334
0.39373227658293286
0.5769491247028485
1.0
1.0
1.0
1.0
0.5984031613113464
0.40190301986703253
0.7006151944848177
0.5718485081888808
0.44989679547203565
0.45936245182101365
0.46516574280352324
0.4301665687850941
0.4074095152434891
0.41086429827731746
0.4220228602619864
0.4010263456523287
0.3970506575320815
0.41543858793440974
0.4237759146532758
0.4042715383671944
0.3776040679184255
0.41056101385938887
0.4080924374503757
0.39291094765063506
0.39695592133969326
0.4248445190494978
0.4631992219475539
0.46120498715688657
0.4728906315636026
0.5049525152585883
0.5540138165217945
0.5824287567098105
0.594933380310204
0.619538257425444
0.6854322685663901
0.7263595097828244
0.7503191437878001
0.7975260167400131
0.8539785051896457
0.8937699002104911
0.9035223766449448
0.9273615041421571
0.9834209174794726
0.9751311890605509
0.9385433812051547
0.8670207731655765
0.8226623100126211
0.7581271337674751
0.6903909736114817
0.6376782708531634
0.6141702188759854
0.6048934703704546
0.5753359402840679
0.5503042765848888
0.5531564186231538
0.5808362595292416
0.5837650153097407
0.5663734233873816
0.5703226695961157
0.5948761865903569
0.6089697983676623
0.5977737687191234
0.5809339182078388
0.598044354762659
0.630185986803688
0.7791665343157966
1.0
1.0
1.0
1.0
1.0
1.0
1.0
1.0
1.0
1.0
1.0
1.0
1.0
0.6820600186922505
0.3543648779486463
0.3777286931636459
0.27773284671794285
0.17274194153185984
0.15413117814852595
0.11960531535457619
0.08202048107083329
0.046157127379026705
0.029366671064420213
0.009616403441610012
0.0
0.0
0.0
0.0
0.0
0.0
0.0
0.0
0.0
0.0
0.0
0.0
0.0
0.0
0.0
0.0
0.0
0.0
0.0
0.0
0.0
0.0
0.0
0.0
0.0
0.06344909136173386
0.1377987314409656
0.21868754782605015
0.26650791124286466
0.26394750521740773
0.2627407222981851
0.2762941972650516
0.29239700187401796
0.28993790326463065
0.2853706285422911
0.29186634427169234
0.30082468198665635
0.31752294381669055
0.3060688391398808
0.31669344314353365
0.33313047970956744
0.33690706679139093
0.3259467285813285
0.32795317719450656
0.3432167622472697
0.35230713434071426
0.3407198147223135
0.32903677822195465
0.3563321897789737
0.3689823861577436
0.3603513074210051
0.34746818966212956
0.36161224517766577
0.3862111586070263
0.3661416904119044
0.3568757653583181
0.374739590169684
0.38984759158604676
0.3853184821714186
0.3734088974790509
0.37847318102239785
0.39801090484298723
0.3955916453612489
0.38051076562284125
0.38497410098842455
0.4022421428278699
0.4034424200294615
0.38585005162066677
0.39082526520037
0.4116952191801314
0.42303257278153766
0.4042989278206054
0.40094687317937205
0.41541136859382577
0.4197188021757854
0.41999963441124555
0.41671812847601153
0.4324253259823994
0.44781097019430166
0.4226764373635909
0.4189712009634571
0.4376674429372092
0.45175114364435026
0.45447153292615006
0.43730294633432754
0.4533827106493703
0.46823762835514937
0.46536939695340196
0.44876583829253036
0.45458430423115653
0.4643337384820133
0.4740274600878111
0.46489952331668805
0.464625917027074
0.47870025077575046
0.4859684370648245
0.46748612952630497
0.46580517979912434
0.48775693484194793
0.4933591395268591
0.48309685853287654
0.4816130160371981
0.4980996676893472
0.5185728516311391
0.49651028064942854
0.484633617912804
0.4992752645259838
0.5082053189623097
0.5014314410650396
0.4893710746417469
0.48911345142401935
0.5086771029688711
0.5091913893061794
0.5033045303854197
0.5056903405626967
0.5194150561790888
0.5190812387195205
0.5179443881000563
0.5101106428374069
0.5228779444068936
0.5373544328730991
0.5324926791133927
0.5358524110562064
0.5455821018918569
0.5473360746029002
0.5635338958910331
0.5789610139589676
0.6479088137201552
0.6890123740905569
0.7130469930119689
0.7750949927722369
0.8552295902117297
0.8415196068822854
0.8154063254016293
0.778731792564771
0.6603860007433277
0.5641215230587252
0.5401099531688679
0.5200068667950075
0.5076305733989332
0.5259493706870224
0.5351662227174757
0.5110478998734294
0.5239058065172228
0.49907260511431495
0.48777480210138774
0.7840022033078093
1.0
1.0
1.0
1.0
0.43950473183978256
0.6338317652808134
0.7261866975014258
0.5720265800986832
0.4874050497977243
0.5061887868717272
0.52770384196297
0.5106094061920274
0.47868506781197606
0.5010404352054623
0.5000339810281624
0.50233841599129
0.47755057026318654
0.48833881232142196
0.5085472762598556
0.5112352807717222
0.4909689830011052
0.49218240023279874
0.5148470143028518
0.5216841321861226
0.5080819993390073
0.5097565841390772
0.5410387776235016
0.574607828569909
0.5668132202839882
0.5851282030787542
0.6378169585105103
0.6822342048865787
0.6945900978713159
0.7171611627615443
0.751928459681617
0.8150324553514998
0.8428318544597169
0.8643984271922018
0.901168546160477
0.9627057513416712
0.9870443835098612
0.9979534927388585
0.9943737868442051
0.9971931147026425
0.9335548611357212
0.8767182832783362
0.8083952723452317
0.7746843641447325
0.7343853035309161
0.6767398643552509
0.6485629119735115
0.642367792607887
0.633018085046223
0.6188704494800867
0.5964468081749342
0.6246190514119575
0.6404970922302744
0.6336485286758746
0.6237800989209237
0.6593445848735138
0.6497948798574561
0.6293853620828502
0.6786657600830376
0.9497086231225842
1.0
1.0
1.0
1.0
1.0
1.0
1.0
1.0
1.0
1.0
1.0
1.0
0.6015608850702757
0.44512112053229513
0.44825377625660734
0.3524764448159704
0.2809882070281982
0.24445454112864717
0.20257679426151193
0.16244381528737092
0.13518908574153743
0.12720952363219057
0.09307921387484167
0.06240688581766198
0.05547472233413116
0.07638819855360043
0.06643905533695263
0.037564297097652764
0.05808235347943436
0.06763886533733485
0.0
0.0
0.0
0.0
0.0
0.0
0.0
0.0
0.0
0.0
0.0
0.0
0.0
0.0
0.0
0.08579235562816523
0.19563450445418037
0.24703731558809627
0.27050651734110087
0.30084422108224607
0.33182634532021177
0.32528934684930355
0.31816873361257186
0.3136402507455688
0.3326951668132996
0.3436221475366959
0.3340302518428789
0.33258118989707813
0.3596433809843366
0.37227896881756317
0.3525414059739211
0.3475027062740422
0.3782682360340625
0.3875189473570978
0.3712624146465929
0.37228292671272795
0.37139737016304597
0.388093061570694
0.38559418477217905
0.3642464602372682
0.3770267448627352
0.39606259758582135
0.391293909992764
0.39054974015404553
0.3903269321675338
0.4048126103838802
0.40567444252791907
0.3948641188951528
0.3899084370966165
0.40975623461062066
0.4212932914507929
0.3945133678617153
0.38017601921686367
0.40371119026033553
0.4216781118941724
0.4139009748906789
0.39886738834130686
0.4214268621609265
0.43442388151796923
0.4210273327347524
0.42089643497014445
0.4275679933388485
0.43029434005859263
0.4341300605757333
0.4323888077776458
0.43186626558639957
0.4468790732923177
0.44215679036002686
0.4374523446795858
0.44533871048713697
0.4614381696194352
0.4540081716441094
0.4423339809102573
0.44147939895128996
0.46768827415365444
0.46350853123337943
0.4461685455696676
0.4522557201239489
0.45846736011479167
0.46314100513501205
0.46140114911684227
0.4456313428830626
0.4616037679721261
0.47087349051332084
0.4653358988565891
0.4569504108245276
0.4690835955039831
0.48753168451763323
0.478583195833724
0.47232874561962335
0.47515506749703074
0.48702165417842364
0.4622166536314582
0.4648304062403545
0.47599250978343033
0.497158977290806
0.4920968741794655
0.4809105509706616
0.4800294528010875
0.4914994332000422
0.4926216334196133
0.4830235473466006
0.48357759000637024
0.4968351168645911
0.4937239070397717
0.4855306245509873
0.48610956178669945
0.4964889614721347
0.5105433116562008
0.5014689027955707
0.5005878822186292
0.522239121798738
0.5279430106594182
0.5254312828185145
0.5159823028379897
0.5273221790691778
0.5524680199347014
0.5710298246532978
0.5918892739672387
0.6186770288418114
0.6500037999713275
0.7072507773740412
0.7634692395622211
0.7729386347131768
0.7687314388642065
0.7646298759706008
0.6672316986982338
0.575879407492115
0.5389652285807975
0.5492353400797463
0.5275108085539919
0.5201888425509424
0.5251484657246829
0.5528199454266802
0.535860738517832
0.52714158649242
0.49020235390286987
0.5352189038963883
0.8378823311629222
1.0
1.0
1.0
1.0
0.4581255001885133
0.6429101300157359
0.6989745947919934
0.5863239224165115
0.5236795641570426
0.5297339064948461
0.5335550557244757
0.5269891450263324
0.5042074755127312
0.5179016065141443
0.5252341869041983
0.531682378019184
0.518002667204829
0.5200852963492415
0.5296850846925106
0.5439289764601118
0.524484639454975
0.5342114449950752
0.5458838833223927
0.5623340764569003
0.5674110306667297
0.5651877346417609
0.5752488734891802
0.6139543993726209
0.6256368976526453
0.6343649127216295
0.658680761003988
0.6999225609695162
0.730249157559799
0.7553254708282617
0.7797219997572282
0.8326854813025975
0.8544180372130163
0.8617925633267044
0.8963552926998704
0.9378670746046005
0.9461136925709359
0.9301642396036831
0.9053804127668513
0.8834631639179588
0.8577665243103899
0.7971805928620599
0.7614456747672974
0.7288154172930261
0.7171144215429701
0.6869249746789796
0.6611583219114298
0.6573360038506122
0.6560487738997495
0.6541205101248003
0.6413163910862594
0.6415024192215446
0.6542940420243318
0.6546314010513402
0.6477968374706995
0.6490115660670434
0.6573923247675106
0.663310309208367
0.665075819827666
0.6621121604342343
0.6594570268819167
0.6536715141965879
0.6465983508111642
0.766173382921487
1.0
1.0
1.0
1.0
1.0
1.0
1.0
1.0
1.0
1.0
1.0
1.0
0.9236981437573499
0.5085893973766059
0.5115339288953071
0.46111016576826963
0.3694281572090854
0.34594995726313577
0.3309528490179403
0.2942465915668054
0.2743731405591492
0.27404650305633466
0.27499358413245983
0.27205007874876685
0.2625605166762913
0.26014225814962827
0.2909910220941755
0.30485734543956167
0.26909764244745765
0.2237132620339569
0.20268909557657194
0.09428333116235388
0.0
0.0
0.0
0.0
0.0
0.0
0.0
0.0
0.0
0.0
0.0
0.0
0.0
0.05957318985497721
0.16693758356503782
0.24852521498261154
0.3047037322945001
0.3357500181602552
0.37531546356951473
0.40691492661935935
0.400849599014981
0.38206980948673186
0.3938969855872163
0.41284528506858853
0.41084040421674867
0.40179922339879914
0.408578124194458
0.4207151223776025
0.4316824208165767
0.4164498791265472
0.42134717120722687
0.44715237820468456
0.4413058125622131
0.43058510943696565
0.438194219073963
0.4495634805433116
0.4545616183797373
0.43904926263861477
0.44487740218629757
0.4513383364087632
0.46007172305839034
0.4576985756225832
0.45287697194119386
0.45329559724145296
0.4619421980263042
0.4602394688357692
0.4576482482780291
0.45985753134657104
0.47134298936587593
0.46340096975284356
0.45339844359984205
0.4590370126352806
0.4800759039523138
0.48183776783015997
0.4707501610876589
0.4743248272210191
0.47946416746843185
0.4809414570317867
0.47197685203192485
0.47336251878015007
0.48848709787824784
0.49997235810130897
0.4790863205367941
0.47637959645684524
0.49046683363246724
0.4990142868392689
0.48189101192247213
0.4809840655158997
0.48125038496154177
0.4945837687324587
0.4955641898004485
0.48850307134254384
0.4921276930155982
0.5048132580383826
0.5047265659074405
0.4927341390077872
0.4890540179533371
0.5043680433047999
0.5036271869268771
0.48336169643487625
0.49091228513860835
0.49835715535327374
0.5057783266694885
0.489928688454001
0.48132987588700515
0.4988681577254548
0.5060332202019431
0.49836113601035487
0.4906291115191723
0.5041776915670106
0.5088387778037349
0.4920945833009581
0.4947699575595365
0.49820117522504026
0.5125394325108632
0.4955806590758284
0.5059329616615641
0.5141020082121897
0.5263547884765309
0.5241475170805739
0.5040310400014547
0.5043775030064832
0.5235232174440128
0.5261595738528473
0.5192644443042791
0.5210664223485412
0.5287548740669731
0.5320645689737912
0.5428769696569089
0.5611678866807216
0.6013473042882407
0.6244252918067018
0.6378196213443752
0.6991108043215779
0.7562550595681328
0.7386304060836022
0.7285211446474256
0.6742107617660207
0.5987587174364106
0.5387813013050946
0.5276279581763272
0.5160276249580249
0.5239398951172006
0.5325134366961104
0.521674547660358
0.506826240033255
0.5191384612681159
0.4977445415063523
0.5026452042895387
0.7123743073683948
1.0
1.0
1.0
1.0
0.49902253408419545
0.5700949767780489
0.6941082551720251
0.5694137851873132
0.5146362929313217
0.5350604277642086
0.5289528232809444
0.5093770064660522
0.4960521580225839
0.4991217073585984
0.5038674304244442
0.4978697935707645
0.4776948385795108
0.48399913846521275
0.4957260397417251
0.5007670272792877
0.4952072571819688
0.49297356392309577
0.511977651657414
0.5168722837078707
0.5073749494430586
0.5116079183489046
0.5368267699120572
0.5528485628155331
0.5510914644059894
0.5588333708312907
0.5924386584562968
0.6125370207424704
0.6164088529875134
0.6336555912560702
0.6711272845613516
0.7076495136785473
0.720949685537413
0.7428726395548735
0.7715805573705958
0.8099385156145928
0.8226175695796906
0.8391800064587468
0.8599979932012776
0.8838402542681113
0.8767047948694999
0.8380242911691237
0.7988024374275298
0.7688573036962284
0.7363582932136848
0.6830234668590018
0.6620311960307369
0.65557160178097
0.6374199319943421
0.6193057577915109
0.6130861653607022
0.6161479831381614
0.6249344759127015
0.614237750571348
0.6149979722257102
0.6286468958067915
0.6320880011580748
0.6281633900635344
0.6314993784641614
0.6345504701638808
0.6492867256926848
0.646239489142056
0.6334185022149861
0.6250715671955996
0.6308084739299257
0.636753757787548
0.7222871626094003
0.9332797704680079
1.0
1.0
1.0
1.0
1.0
1.0
1.0
1.0
1.0
1.0
1.0
1.0
0.7167054826565795
0.48696068137328635
0.49203373819859636
0.4321067698889591
0.3774873641321354
0.3646211784289693
0.33968355407621004
0.3151020163628781
0.2930458936584803
0.29061414977902655
0.2866648817703924
0.2782091502727654
0.272276625541532
0.284140395822025
0.3048875148008774
0.29062313416872854
0.2497843579970352
0.2309680085251033
0.18363168473026828
0.0605693138031894
0.0
0.0
0.0
0.0
0.0
0.0
0.0
0.0
0.0
0.0
0.0
0.009393992582877608
0.0800719458769854
0.15983096779909461
0.2510156877190829
0.3195390893945955
0.35867852696534974
0.39430025435411037
0.42653666943365154
0.4362810103432519
0.42373502762314896
0.4215935933074822
0.42864148854865425
0.43631886081319216
0.43360426060931323
0.4333005940019096
0.43672271924921374
0.4507201862351825
0.44034794519393633
0.43517652829217834
0.4448855300765168
0.4579428830112494
0.4623574950439965
0.45389275633951665
0.4625684479991265
0.47106396202934364
0.46952580046836506
0.45961143231086776
0.4671743529448375
0.48283010970369267
0.48239750098354106
0.4697963429169672
0.4678256425767124
0.4867756160289157
0.49414672901274814
0.48315963871064904
0.48585711338429804
0.493565452702357
0.5068096305867346
0.4915288817941139
0.48386098118174453
0.4987961696479271
0.5130003834930293
0.4963222961056335
0.500794353923983
0.5104118129874025
0.5109477672436336
0.4953635985434458
0.4994671966722269
0.5036731514432311
0.5254264553879991
0.5135808902162925
0.5128778425273478
0.5180930229189953
0.5257232671320026
0.5245782570009603
0.5130190549708797
0.5117020760568037
0.532893125866629
0.525193016044821
0.5162386317920197
0.5111570333054234
0.5258204172556141
0.5302896727258737
0.5138597277898146
0.505331022446061
0.5292253532343115
0.5342285705269612
0.521618213840111
0.5110926031168564
0.5224906745172719
0.5238436476446269
0.5245628779972644
0.5194099584678734
0.5184992308671156
0.5283218911043964
0.5262814857195368
0.5273270111517532
0.5294188830500274
0.5290993961088102
0.5355769840485115
0.531996729692011
0.5217620416846475
0.5336976134174345
0.5409402414526281
0.5297254356471072
0.5297443723599815
0.5472659337268211
0.5380976979358681
0.5278366200015666
0.5230909908933972
0.529126507942952
0.544361124647584
0.5373662661147366
0.5350110825019037
0.5440441866301804
0.5452811324595179
0.5435288737702961
0.5361372815510785
0.5646857231183843
0.6243629826073178
0.6317549814108896
0.6563205722543302
0.7043913630954368
0.7400066752894411
0.7187236029962577
0.719784142387389
0.6818640443672976
0.6210964075000432
0.5529067559370536
0.5304286373310495
0.5260692152233837
0.5282244234764649
0.535607338710876
0.5205291423204506
0.5123548128974658
0.530868926640232
0.5095095070538379
0.5069631774326225
0.6921170299117243
1.0
1.0
1.0
1.0
0.48301576553245135
0.5790966622769199
0.6585363541700666
0.5587867412829406
0.5151238593916101
0.5299901614993889
0.5258325583672846
0.5130482568436457
0.5018535880370336
0.5097379135500927
0.5055692766037226
0.49382791386246944
0.49896300814612793
0.515887139911625
0.5158299733434754
0.5078260697522711
0.5086798203596611
0.5185944000323696
0.5338726835763626
0.5241898276030532
0.5209672624284878
0.5382758910607708
0.5583604077477691
0.5590405560009793
0.5595383539584946
0.5772132299573824
0.5982359168872702
0.621290870298304
0.6231918731295651
0.6506856536863482
0.6836098038544842
0.7006955824297154
0.7034296239311015
0.7180147968220294
0.7534223644346323
0.7753591736366208
0.7764575825012241
0.7900280716413132
0.8129084650486746
0.8249441405925413
0.8040546913061565
0.7721045620879744
0.7505437309466745
0.7404774340764192
0.6934869060638952
0.6573174897714834
0.6456848966509924
0.6402310640208555
0.6186304965019772
0.6042543634262317
0.6081947857927645
0.6106209986147096
0.6122040466407752
0.6029543184356201
0.610335121870065
0.6315213192686022
0.6326742609853783
0.6223866793358114
0.6131267182972947
0.626385003102268
0.6657168451041202
0.7841433563721075
0.9922241774416228
1.0
1.0
1.0
1.0
1.0
1.0
1.0
1.0
1.0
1.0
1.0
1.0
0.5815454351533147
0.5018046881843876
0.5157106657611709
0.4434090821573259
0.3898364602881549
0.3872388495427953
0.36793157817321154
0.3434363812273556
0.32137679544382053
0.31621641002763556
0.31072770411164585
0.28695356001748307
0.2717649970182201
0.25798270777794763
0.24258750181389188
0.21913711254800466
0.19398914139900789
0.1876004430869679
0.1883747806807253
0.18218983964444946
0.15600579709262002
0.16995384087022894
0.17480177590911664
0.12036268770368794
0.07627476107074668
0.03930335699897922
0.0
0.0
0.0
0.0
0.0
0.03552112738618307
0.0833395762134999
0.1423221435493444
0.21651986932421372
0.2922148322981496
0.34299528520843064
0.3859292599476727
0.4278076724603571
0.45626771871964705
0.4617928883935004
0.4582996945402836
0.46249938698274173
0.4764395013726544
0.472388830561077
0.46848431398289136
0.4765519215770294
0.4843197726757292
0.48375694852972095
0.4832764511172634
0.4854534319203353
0.49231021788214935
0.4932246501648315
0.482318272712538
0.4800556797263697
0.49252862612981574
0.5023260145622921
0.49099613946976906
0.49138441861089444
0.49773789136242746
0.5066804711761426
0.4947849033786421
0.4905943498191719
0.5069302719863292
0.5098440298732106
0.5020473025226369
0.4965519976188612
0.4984170452791177
0.5104956070978633
0.5110623408831222
0.5038879324170349
0.5087528295214088
0.5168728968063818
0.5159202270838865
0.5070172442480291
0.5111050023729542
0.5167677896371989
0.5210748839558175
0.5135324436728439
0.5208297874651773
0.5340930738444766
0.5313189148424151
0.5258370291885596
0.5257868100754562
0.5368940982255566
0.5412157123271267
0.5264194847874938
0.5295241490345273
0.5420966413330166
0.5516790604988224
0.5463972523986828
0.5389388756775293
0.5446251717877619
0.5523152695075246
0.5454410372438965
0.5349167270418271
0.5458048449205984
0.5523314340389576
0.5519210803438972
0.5400131067330717
0.5424076733431045
0.5537292189583881
0.5488211789590988
0.5426663969200245
0.5494442816135197
0.5608506694453028
0.5634980426006957
0.5496270858026275
0.5481625857992461
0.5630461557499458
0.5703289645167968
0.5541381270021237
0.5555057595400907
0.5675066295006754
0.5705842206227714
0.5570963541552401
0.549782207056117
0.5580550599149469
0.5768573506113455
0.5772245289368131
0.5643280232440974
0.5597094732484902
0.5770479469297383
0.5689856972135928
0.5607685739135628
0.5683154257481388
0.5781102304118793
0.5799346976509009
0.573244039638071
0.5697875161061995
0.582011352363732
0.5896581608186021
0.5768520425820877
0.5713677910445151
0.5947670938767967
0.6209703953858532
0.6323187097893314
0.6397206885815881
0.6681352254470165
0.7206689914880426
0.7638413705303078
0.7635371052098734
0.7630363951525485
0.7636054119304194
0.6910789637948609
0.6024910625197963
0.5649732477726098
0.5824059831871476
0.5796405230435535
0.5585836265397931
0.5640510791474589
0.5782933094149904
0.5782508323129497
0.5502196284775639
0.5199655885886945
0.6546135130881625
1.0
1.0
1.0
1.0
0.6073984441346306
0.5748152587501841
0.698013955778882
0.6266653657966244
0.5797462634349936
0.5648871890135615
0.5525933497367703
0.5421381110561725
0.5517021733789695
0.5482808357271283
0.5381434198753376
0.5411832400832944
0.5537574278388997
0.5485924869073633
0.5286502395057897
0.540230851871278
0.5572797426880302
0.5611243389518635
0.5431228511652139
0.5426080100475118
0.5656196712061702
0.5671244233470836
0.5624738525065573
0.571483223262675
0.5977655098704313
0.6100643397726596
0.6136827594116128
0.6332771748743193
0.6571384740324119
0.6835905521532968
0.6919056182472563
0.7072089166561557
0.7327804770077574
0.7569010677191803
0.771649945385656
0.7782845002534831
0.7966888496795244
0.8184619480811076
0.8226230760339031
0.8142881904292503
0.7901683416782331
0.7762045743847985
0.7485082868110292
0.698383273747145
0.6694684710392721
0.6565629191765356
0.644983647215722
0.6218509840198745
0.6074121217196662
0.6190201753031371
0.6121220287694695
0.603598593353744
0.5999878066580091
0.6111243282739105
0.6134300474945831
0.6044019684546077
0.6066779454973062
0.6102626270726937
0.620361892029399
0.6223180936503838
0.6052439578190155
0.6021955727360331
0.6055136410100811
0.6088522440226165
0.590215297940524
0.590273246903642
0.6016575772240808
0.5912646323589772
0.5741299158926707
0.5646146928212905
0.5791049971786162
0.5806605534137923
0.5647444773193186
0.5588864068494253
0.5581856643483871
0.5582105259668324
0.5530616186201918
0.5460919741166469
0.5489435169589941
0.5581079853760263
0.5570697267152888
0.5498385243409109
0.5538003642672019
0.5736852216336376
0.5873190398430607
0.5979922348326066
0.6162939479069569
0.6524370246859418
0.6937967291736976
0.6994416203070253
0.6883946295703725
0.6914154588032221
0.6418564802547385
0.5616687108754845
0.5180445287647817
0.537465457780785
0.535554398878493
0.5222941831941212
0.5095151940232752
0.5215041514090047
0.5214435330035131
0.5176068680018893
0.5091005247239522
0.5063239364081304
0.4832718174695369
0.5745192994149335
0.8625809345376487
1.0
1.0
1.0
0.8016303070383557
0.43618922273812366
0.5986051814578197
0.6161449071418634
0.5335386752294697
0.5070623067767551
0.5301712505155807
0.5167992570997318
0.5023122390514406
0.49947368221279265
0.5163372987330699
0.517183272183823
0.5045099482026149
0.4988415087901112
0.5176777287058456
0.5212534744489853
0.5135496196110105
0.5095523534463443
0.5208299245375329
0.5342495112047241
0.5295589426054008
0.5204705185632499
0.5268567964269447
0.5549861942209786
0.5568312021850773
0.5575893864615931
0.5752860107406714
0.5976424795090451
0.6087084613074293
0.6193414971726295
0.6396353128565557
0.6676945626797636
0.6872301671910954
0.7012326660815852
0.7159525657819561
0.7393358622840873
0.7549182665529838
0.7577270200481594
0.7583838124421243
0.7663134765705668
0.7523908881660832
0.7103892652661079
0.6724562593402666
0.6454662881867893
0.6236440230024642
0.5829195162281098
0.5570544476200087
0.5443417463807185
0.5428744728730449
0.5304226370657961
0.5090716560404089
0.5065871190587066
0.5226827348141642
0.5210522786558617
0.5162332750192121
0.5195699012227648
0.5362307848800342
0.541251724430503
0.5329947726343476
0.5303760082535186
0.550618117690201
0.5539267558410288
0.5418017916344839
0.5371828553457065
0.5446173283856693
0.5524538825001327
0.5387295618709228
0.526122851387594
0.5335516609583713
0.5476946392843696
0.5342688315192218
0.519737303783608
0.5147975765794739
0.5312289358999627
0.5223253969442239
0.518195371037122
0.5118210720774001
0.5222928892955907
0.5106291116992938
0.5032262933483377
0.4978716835679496
0.5205000933183019
0.516026088296474
0.5111716944621834
0.5079164177174732
0.5180171118463428
0.5432849732831585
0.5520348099590201
0.5718524536948109
0.6029846180083892
0.6413352852777671
0.6935183826145371
0.6740338042289643
0.6737976052710886
0.6716729185621441
0.604301101717388
0.5197236637392211
0.4925045154134856
0.5012485429175615
0.49519786388368764
0.48127154297953334
0.4779380741888974
0.4895855134916431
0.4804388630984846
0.46543852619203624
0.4843329837812179
0.47660299366302034
0.46736735879841496
0.6208047163261281
1.0
1.0
1.0
0.9111592970240254
0.38566355407669634
0.561405266125783
0.6045523701975388
0.5086446484616597
0.46709335116116285
0.485247856463479
0.4822402250529961
0.4753662521182395
0.4556009116759707
0.46412356868158977
0.47493023861375105
0.4695117767278301
0.4546246950327518
0.45577220438973975
0.47531744391869835
0.4796614453185052
0.46909919880955825
0.4771391824536299
0.47584308407212905
0.491176365053897
0.49377940835051976
0.49864832418961846
0.5188897086369946
0.5382524485237279
0.5362167227978771
0.5667420779270975
0.5945719547478664
0.6372686333166465
0.650211494504977
0.6682529754431487
0.7095465075745709
0.7465770669112798
0.7612732645783461
0.7714990167225882
0.7903569795160659
0.8144547610110198
0.8057716822275175
0.7702645233631866
0.7313635583274054
0.7068033262168286
0.6559648585652983
0.5980479792778571
0.5639605020319853
0.5437354217226903
0.5347803787061838
0.5172059009957077
0.4982578684823169
0.5006619752272307
0.5011135154378705
0.48882042993485236
0.48494657300987526
0.4982043766072076
0.5079122364184789
0.5011887759001439
0.4993452549429436
0.5067743258553319
0.5279707429291495
0.5280554943094444
0.512883581993661
0.5149906341510493
0.5289504229385368
0.5218383835807383
0.5156498855345854
0.5120149384780426
0.5136730556089251
0.5096779729404419
0.49538480537977164
0.48614786530422693
0.49002011920034094
0.4937351672771858
0.4838091093083978
0.46229744257464606
0.48005326022428346
0.48965129122912954
0.47451361331400455
0.46408604310401397
0.47042586266409747
0.48480026906038
0.4779243998541193
0.4625484129422297
0.47096168855378207
0.49506643377974624
0.5023823558656069
0.5175021417371976
0.5355448745573106
0.5616723927477619
0.5861603224087963
0.624398469928866
0.6511695191178691
0.6448930067377707
0.635586564556344
0.585130847452423
0.510784707735412
0.46510331831113544
0.4529293809475908
0.4424928249474497
0.43011584190004176
0.43516489724088114
0.4431157461496814
0.42854158444556206
0.42677787072211454
0.4394146651462275
0.44069611161825295
0.40210261286931087
0.469948620961021
0.8142983741876145
1.0
1.0
1.0
0.5679895654526679
0.36890074668508654
0.5729655985127209
0.5073868717273308
0.43815074247682995
0.4364178097637191
0.44000200655400434
0.42305673264650734
0.4140456357885179
0.4239708843478992
0.4297143855240522
0.41784910170268386
0.41394685695901245
0.4248792559285855
0.43134503491120907
0.42353540263730166
0.4178156536279639
0.43136181630382947
0.4447695034121665
0.4374623632875362
0.44096594932898353
0.4549324432506047
0.47454785469616956
0.4786867349649998
0.4776668051183939
0.5062694251165687
0.5382082956994318
0.5593036538492072
0.5713586361763286
0.5953583366641896
0.6419348774205662
0.6722776568563454
0.6799763112775968
0.7038005318180842
0.7406161363906689
0.7567230854510104
0.7436617244528392
0.7118240775296284
0.706177853624486
0.6598368832640749
0.6037361116929085
0.5547398980048941
0.5230543294764258
0.5082757978319978
0.4920346353103694
0.4569194950342215
0.45727596211909693
0.4629042955774656
0.4491695176609021
0.4352585316140864
0.4417771015990454
0.45446766158889107
0.4538615000026122
0.45013038134427286
0.4594701513695004
0.4699151295553162
0.4710114409462028
0.46517049267193566
0.4658750280527492
0.47976360650187855
0.48307720264148235
0.46399211460372847
0.46235031672389343
0.46898465567349623
0.48050070671896705
0.46080058013684966
0.4427741744333635
0.44671831097384435
0.46030449140319885
0.4522332946425691
0.4447369878507499
0.43949173161242533
0.4537350416068964
0.4417088837078344
0.43781082944127625
0.43134373041469115
0.44978372738219885
0.44975237076539515
0.449814323301838
0.46845391699822947
0.5136547462675131
0.5413882217346526
0.5670772490477591
0.6134069790895638
0.6408889812138892
0.6277447302146972
0.5965255881130106
0.5211746584513935
0.44791769304529827
0.4187513865976397
0.4136384980036357
0.39455337068881347
0.39776579422707875
0.4037745496261116
0.3986211200108577
0.38109488003348596
0.39556436890843216
0.41790006913531175
0.40037201465332883
0.36017243512215497
0.4904011031282833
0.8945109557251699
1.0
1.0
1.0
0.8803359143964924
0.34156893440659497
0.4600656949946248
0.547924081227033
0.4652963126906394
0.41518772911227464
0.415136229364497
0.39316025418172507
0.4022403094847089
0.4087332069011678
0.38862845285335645
0.3740201043965502
0.38404504214432944
0.4048514617084768
0.3974711076304169
0.38849643794614946
0.3863530813497496
0.40693984396611205
0.41035156307610254
0.4068675005474775
0.4201680243118647
0.43253432905710926
0.4375628205694576
0.4343763915018203
0.45612003423026265
0.4745443090192074
0.49872595374024664
0.4976038452788905
0.5220560487963419
0.553994931575505
0.5944311040231977
0.6141360307148915
0.6450585476100812
0.6782171980360567
0.7085637339974422
0.7231368256451202
0.7316968442770078
0.7663567310777356
0.7744019805891444
0.7596817913667941
0.7101640995360231
0.6704255415237153
0.6368178023543627
0.5821472628844012
0.5299816418174416
0.48481630152343846
0.475350774638024
0.46410922308867597
0.4310174588763127
0.4281912840032736
0.43309927234673895
0.430543112211956
0.42137287217095876
0.4168955421746223
0.44103953421035513
0.4514308965874923
0.4565741323768961
0.45019741904212207
0.4621599737636946
0.47862291411142943
0.5384059749898317
0.7420517470173909
1.0
1.0
1.0
1.0
1.0
1.0
1.0
1.0
1.0
1.0
1.0
0.9958513811519651
0.44774167041441926
0.33985654627574985
0.35881365955701067
0.26481689597667424
0.20983106963363482
0.18996843392938717
0.17194452478190722
0.14639777586878616
0.1265839068919227
0.1174266679735482
0.10675673274247965
0.07132160016431613
0.06033875369828543
0.06378308102672108
0.07571714217593559
0.05788217015551193
0.04444001247915237
0.06809421581394899
0.041117923245340825
0.0
0.0
0.0
0.0
0.0
0.0
0.0
0.0
0.0
0.0
0.0
0.0
0.0
0.05730359588930112
0.1287298409010987
0.20618523335530686
0.26329582351535064
0.2777997517973928
0.286181678345914
0.3001627769245193
0.31888865299301444
0.31167623574846826
0.30808367259907665
0.3103219226225642
0.32776176781190103
0.32525123494930747
0.3158984160043386
0.32379815895971537
0.3354782760291869
0.3407352581901537
0.33315622520470506
0.33455451046534385
0.34935352796814295
0.35328345623656804
0.3483049874741754
0.3448588667275727
0.35327913393895144
0.36425166175981155
0.35509419307464885
0.35365824002050833
0.36410056858654893
0.3726789464449835
0.3704440942420012
0.3629182116213827
0.36934924884023246
0.3834676098894889
0.3766984440022858
0.3706627521834968
0.377954509088213
0.3921671245943911
0.39156836482656193
0.38422173527103987
0.3856641101374583
0.39273432090157484
0.3977487967301442
0.3876754463598033
0.392917076724434
0.40194411399717395
0.40605199573582584
0.3949589258358066
0.39495898979390925
0.40682088559399243
0.40908281150812476
0.40352094824867735
0.3940816248095375
0.4092574713147135
0.41468793530163744
0.4137953435190969
0.4095103630475082
0.41417146412430395
0.4174642442621058
0.4160843982447835
0.40627022428924775
0.40034404374599275
0.42707748777396065
0.42358697758856306
0.41468762824397043
0.41564749533658707
0.43903693118278386
0.43441776069153404
0.4240688067917001
0.42222685320105535
0.43152265751892205
0.4336320360839691
0.42768574062630355
0.4186430955125638
0.43231557139561916
0.4391902072902808
0.4334854500936995
0.43251322125247676
0.44444829067166386
0.44865770348301315
0.44414745778566456
0.44099276018687517
0.44554022532528875
0.45141893817526935
0.44342587323735627
0.4311766380344352
0.43731028906797065
0.4449615740971063
0.4354428061794272
0.4389738400311497
0.43562301998582276
0.4459631993045122
0.44521691080327663
0.43843373240491273
0.4435928653512272
0.45288197991974233
0.45693184192744785
0.45018515411361637
0.45227228637929706
0.4696046609222414
0.4970085420224284
0.5131148431241431
0.5251712001693799
0.570267146070081
0.6476175093556751
0.6500967343999482
0.6321423642404671
0.6192576357971429
0.5791124106936908
0.4870683222248446
0.43643462885578277
0.4401504807096715
0.4533853486920293
0.4501618851007427
0.43714711905853143
0.4361641365764394
0.45547942513316747
0.43635811804445596
0.40380568971349706
0.5650103801487338
1.0
1.0
1.0
1.0
0.43930565129299914
0.48934115737314565
0.578159610222958
0.4784401502981236
0.4360382466516678
0.4444043694594718
0.43750706457829286
0.42316941884526094
0.4254250677150145
0.4394616979600774
0.427257263609394
0.41460474892657617
0.42087948250891427
0.43890789226617866
0.42802796268194643
0.4132036816865575
0.4158910845250744
0.4352271286062514
0.43585405484968004
0.432109744654354
0.43878285995410976
0.45364871340367785
0.4683681543315127
0.4745831951009009
0.4822551538325334
0.5087524109774495
0.533866819328263
0.5363026377371684
0.5506729532343433
0.5840467779928235
0.6180357803057379
0.6263064281500113
0.6385046155203536
0.6711674025882386
0.7055746881383064
0.7179107494846353
0.7226174826169285
0.7412744578357693
0.7535710077520881
0.731788960396355
0.6895327926974718
0.6609529002724641
0.6393962273340613
0.6026385254516408
0.5618940453659391
0.5418544973955916
0.5275073200818629
0.5225883477257949
0.5063932736802116
0.5048145626241833
0.5062128241733899
0.5140060111452114
0.5093691006955668
0.5116306953179698
0.5249850876908563
0.5345931642009468
0.5288353109170058
0.5264001769234645
0.5351346469364617
0.6146820585957705
0.7925247433121043
1.0
1.0
1.0
1.0
1.0
1.0
1.0
1.0
1.0
1.0
1.0
1.0
0.5436440868601427
0.3798672584702807
0.3961541348041323
0.34938975860035704
0.27944896382839973
0.24627607904231205
0.24291372936415626
0.22627146591532665
0.2028303266329327
0.17507350104187264
0.16020524485634974
0.16782774426911423
0.16495874850846842
0.15484341002277632
0.15453770792328853
0.16674212981925232
0.18127567746414425
0.1633067867664025
0.11368299566708125
0.09042527093176185
0.028820682158545628
0.0
0.0
0.0
0.0
0.0
0.0
0.0
0.0
0.0
0.0
0.0
0.0
0.006831278499594884
0.06838372050056929
0.1408258031178394
0.21856692765732202
0.2557142259546767
0.27039609733349584
0.2920751384275381
0.3096160142564175
0.30574874426441817
0.3084388906914303
0.3092924932906679
0.31665676775521384
0.32376158687185397
0.3162357231479316
0.31911453394687345
0.33630685364763946
0.33885225742684916
0.3288392570395292
0.32716930000946043
0.3427298199891594
0.34515959360832527
0.3455501264116895
0.33939572695769926
0.3416894763687814
0.35160403835393106
0.3503877657504804
0.3485917521248818
0.3515945907896513
0.36197177640214545
0.36552228772606554
0.35752042717688476
0.3592323011120078
0.3711716585534165
0.37278174033937966
0.3648879222372542
0.361861762921957
0.37342338576559786
0.37578556192009194
0.36874145127576924
0.3727136081461529
0.3755964812041239
0.3829042675754558
0.3788059007254764
0.37596177552235066
0.38132752067294773
0.3876781089374409
0.3806957133313151
0.38303721601995255
0.3842852505609546
0.39305843370783816
0.3776793867504236
0.38253779262925913
0.38788981577432985
0.4018120161539824
0.39633642642205535
0.38583863987702
0.3913475029636322
0.40507460071993434
0.39918369882555343
0.3916623624638498
0.3893965194194958
0.40270152858116315
0.4022818865920721
0.3993117382766788
0.3982314441991804
0.4061125743500737
0.41262893775405407
0.4099264402174267
0.399369457498926
0.4137040274495451
0.41441387326582957
0.4072199066350274
0.40412740732891467
0.40722347306923634
0.41075220949474706
0.412447503394404
0.4091001731448964
0.41068413251809704
0.4190530971103404
0.4164459093709413
0.40457820852718207
0.41163805706025924
0.4196427549940351
0.4206348154231117
0.4159166219343807
0.41421677198253787
0.42262047766037725
0.4247222444077166
0.42138918597860764
0.4164911899283671
0.42723430055123135
0.42664822148770076
0.42678194126650143
0.42180422748290913
0.42858722353632395
0.4387115875243125
0.4360663120995641
0.4381492929600519
0.4592730984050541
0.4951712530016317
0.5061143116434055
0.5261936310596739
0.572561549845962
0.6030722887071057
0.5870151594653332
0.5716909842695741
0.5334572352865448
0.48297275487073643
0.43545548269880135
0.42674936358895266
0.42053597551009486
0.42791133023514305
0.43415274617715083
0.4240455023649773
0.41947525930199275
0.4304808958929017
0.4143042462610363
0.47313338823415824
0.7379018730832079
1.0
1.0
1.0
0.7025796065188765
0.40063593719766305
0.5245921266260369
0.5247524425479231
0.4477085201240952
0.42180488907100766
0.4280759821535032
0.4229521328330831
0.4153424783771822
0.40791815990503666
0.4136641045220529
0.40522098176968796
0.3989021635622432
0.3985123332676918
0.4139464970475906
0.4125756804225859
0.4077989271187385
0.4013602135196038
0.41510768880040166
0.42534730526588327
0.42271917946543675
0.41777711055198335
0.4365761997639728
0.44960369660015864
0.4487203824808188
0.4471009204652063
0.469470287609212
0.49600199804084627
0.5115171220277646
0.51926067272265
0.5401205903418784
0.5711144488195272
0.5923231903201132
0.5958724432333762
0.6155948731281263
0.6344002857035524
0.654114447858116
0.6562654555858873
0.6652551520066383
0.6625107538124133
0.6591465292683931
0.6227641611901624
0.5907771282372192
0.571416960903145
0.5512794915261459
0.5158712018524152
0.49852989291234995
0.49903073759684435
0.4945642340199087
0.4860760635374316
0.47069098683530897
0.4800466240734031
0.4930867766402357
0.4916491711596439
0.48620527653911144
0.49302280802844384
0.5095333239596421
0.501810429544661
0.4968796886348018
0.5077799262425883
0.5202544153864493
0.518809560871599
0.5120543202223138
0.5689117088043865
0.7266944802872477
0.9274362273185683
1.0
1.0
1.0
1.0
1.0
1.0
1.0
1.0
1.0
1.0
1.0
0.6258846484793025
0.41291005165270367
0.39957189317289926
0.3603404336076656
0.31447959313839924
0.2965888594688117
0.2781493000691642
0.2559832259774173
0.2629011707985024
0.2520437314055417
0.2455540866070915
0.2445305942465302
0.24777032972650584
0.24807375710042429
0.2565171195040336
0.2401818357137481
0.21754899294690394
0.19070079117149477
0.12846639001038324
0.03200069795962168
0.0
0.0
0.0
0.0
0.0
0.0
0.0
0.0
0.0
0.0
0.0
0.04633046141026984
0.10491340913723976
0.17610496187103236
0.2415753697269558
0.2812347016032458
0.3017469746331581
0.3338437943878878
0.35023758106922864
0.3444921334614521
0.3399401304424329
0.34783090797512645
0.3579752621914052
0.35439139154603466
0.3481853279399849
0.359713133825137
0.36755105593298765
0.36633699709636697
0.36171561997868906
0.36722222695158147
0.3749011324957314
0.3775914209133725
0.37088946570380416
0.37300428227824484
0.3882993530916698
0.38834387250239827
0.37978033570018005
0.3811691653577996
0.3885944121441594
0.39295509958680813
0.38616386901591293
0.3849683806046166
0.39573967117001513
0.3993803927117573
0.39775426308494677
0.3947461592132188
0.40302864658926174
0.41040639319256894
0.4012562575941018
0.3948032659969235
0.4011249909562166
0.41234233229534906
0.4097165121870886
0.39852004384518447
0.4033335105209602
0.4180629127079851
0.416652221235662
0.407576466482966
0.41463218652873157
0.42783037897115095
0.42636131892714707
0.41908667306962055
0.41726430733654435
0.42319066289049595
0.43326397151826096
0.421690632244536
0.4181502012056712
0.4328111983768979
0.4416153158092052
0.43433014886109894
0.42681924033569557
0.43665269922578487
0.4421205194000484
0.43746798510368723
0.4273879365119447
0.4323973671581339
0.44164419259801324
0.43593964562419174
0.42680107630070463
0.4361092611982606
0.4446089012046944
0.44720346740146866
0.44624983403119256
0.44501253810060976
0.4503812371016064
0.45129401254979956
0.4395978169168296
0.4356890920626304
0.45509214113585517
0.4602302157050865
0.44575344859881116
0.4412505637665419
0.44922541760746426
0.46248820881266434
0.4559712555889643
0.437057049376235
0.45338069943274456
0.46185661481973417
0.45203235845716117
0.45023882670771515
0.4475363208358911
0.4626482973942775
0.4567433818697185
0.44916553558978983
0.4538275164977958
0.45915418492852034
0.4570648373611467
0.44914245729138375
0.4498068390242107
0.4644370913224374
0.47568380886978073
0.4789621328333046
0.49594227219768383
0.5155116429463346
0.5354062100899304
0.5615978237421736
0.5881200957016987
0.5820350316503499
0.562355244489417
0.5249027854501752
0.4727266224425989
0.44816167723998196
0.4581768051279824
0.4580639053806489
0.44841042445481716
0.4506673494640238
0.46108638516026695
0.4596863750128811
0.44235452850963136
0.43033841480780743
0.5196350844937323
0.8142311713125199
1.0
1.0
1.0
0.5247853400325707
0.4278637392885938
0.5584538853864417
0.503853438684378
0.45861886266818475
0.44222001567841157
0.4410851708634655
0.44443725362466646
0.4476260123598452
0.44248707775899804
0.4328339364406535
0.43572802348969447
0.4445004645349407
0.43486541313309246
0.4264193959595037
0.43206855318115067
0.4442617484437677
0.44484701469202603
0.44101646196304556
0.44845310572572233
0.45885372264867047
0.46564311196919145
0.465543192684296
0.4759975511964888
0.4922144633418354
0.5023139278662445
0.5092884975886127
0.5223494163245942
0.5490437292056413
0.5699160011799848
0.5805176720898314
0.5949869991662086
0.6209942302013625
0.6358710935405959
0.6496611679176355
0.6599170198224231
0.6818841925813861
0.7007072613586496
0.6868961337693814
0.6704179591291316
0.6513719716950473
0.6353749160238472
0.6029428003287463
0.5658886694469316
0.5446854308176935
0.5454059415432496
0.5362532301912374
0.5230700030510661
0.5142852698836344
0.5213590547576182
0.5222884773032683
0.5176969558883041
0.5220631046031392
0.5357150126944499
0.5403556319232088
0.5372359796225272
0.5288904926185276
0.53249959045435
0.5532377397471484
0.6293143553351642
0.7856543607536148
1.0
1.0
1.0
1.0
1.0
1.0
1.0
1.0
1.0
1.0
1.0
0.7035256536658497
0.4390407737024655
0.4409078476804723
0.4102931548028953
0.34921807607583233
0.3245481755237045
0.3207342489731194
0.3066253480523692
0.28982620021626376
0.2716202813158409
0.266243516136757
0.26035132075114975
0.23628843638468702
0.21555644468673774
0.20834776082157663
0.20744864601392593
0.1937310524041183
0.17771666693881022
0.17767783328072428
0.1904626401461323
0.15655379025288085
0.09190064514007083
0.04855537096936917
0.022189224073911086
0.0
0.0
0.0
0.0
0.0
0.0
0.006959309625336552
0.06216420576648973
0.12219868710201509
0.17630837350880943
0.2352737641971015
0.2934469409999506
0.344124427085449
0.366765924109139
0.3807069405570093
0.3991822984158301
0.40969332358537763
0.41152714131773854
0.403215200210567
0.4018346948492339
0.41409416468462795
0.4181641303672472
0.4170527896932728
0.42605459690323705
0.4327769300485545
0.43273572176102915
0.425627794601455
0.4276989959501375
0.4377353951555546
0.44444851683891795
0.4381520191836108
0.43751765619627464
0.44955566915355416
0.45124716208549503
0.44452165403123634
0.44246348173184813
0.4497361287529046
0.46129645579117795
0.4542289846250661
0.4446338453586393
0.45285591005108045
0.4576175590171802
0.456362271158884
0.4512690658066266
0.45072332283458694
0.46424302991057004
0.46448654778863235
0.461640133742686
0.4653295134701418
0.4756677046175706
0.4719276398860351
0.46610880134124233
0.46952347158446006
0.4800537523941661
0.4791478172611628
0.4731050686151571
0.4697315886519181
0.4827620467534056
0.4854812488287742
0.4771372223781817
0.47373287497948435
0.4874500206122425
0.48974636186475423
0.48346436967116596
0.47805014381216876
0.4880581980549016
0.4865512589001438
0.4828488050689687
0.4798499445566626
0.4854395276090723
0.4979685499488854
0.49626789213064315
0.485302480888269
0.4864185491804426
0.4987645384822855
0.501780922326805
0.4933934989170122
0.49244355254315675
0.5020681767713524
0.5053875500667967
0.4963545460185667
0.5016991067565202
0.5085306026008467
0.5136660869734845
0.500509275767553
0.4988896225522425
0.5131429568230281
0.5269643665907832
0.5208988700224244
0.5144979204743543
0.5228491855871922
0.5320564112506785
0.5240694584663722
0.5196870604747257
0.5272147065968877
0.5351768820626421
0.5294721286852663
0.5254155838177614
0.5184371696146143
0.5353494443075392
0.531904673323757
0.5263478747723667
0.5234510267610963
0.5354081944838308
0.5335308915601396
0.5265051235142033
0.524383668068056
0.5383281667477856
0.5500695785634344
0.5559765860513828
0.5723772449375005
0.6031991395248133
0.6250061204620788
0.6570222758036435
0.6647307419534041
0.6428934232157586
0.6325697775998839
0.6027597435503119
0.5528694053035678
0.5282168191962068
0.5403085794154572
0.5367325760240245
0.5308892781868926
0.5315630206756412
0.5447490210289907
0.5438138573805743
0.5332731233462179
0.524158068172116
0.5185930572907558
0.629761523394737
0.9049807729542628
1.0
1.0
1.0
0.7373673258392797
0.4887007984550992
0.6288473013261803
0.6197357876307358
0.5526849620088286
0.5301113095567197
0.5354295018720266
0.5296613977900357
0.5177166314499914
0.5094235372174587
0.5162133465535484
0.5214768198067107
0.5225595391800264
0.5173447362643946
0.516655838141818
0.5234193449250633
0.5230021148761613
0.5141330367612236
0.5162986495294091
0.5279544002183211
0.5348774249131683
0.5296122638069641
0.5293238126789416
0.5411051107723718
0.5570389279826837
0.5574315921019534
0.5648978783083893
0.5745686550102354
0.5897543881141234
0.6004749272038479
0.6164823031610357
0.6339516082510118
0.6640274077235846
0.6756470639297496
0.6828920350313733
0.6891346339180408
0.7231011722303211
0.7417917658519195
0.7461350277527463
0.7484232386580212
0.7531574385869658
0.7290648231654375
0.7068105235912411
0.6805945355245382
0.6613198395531341
0.6378540065222992
0.6061669660230795
0.5876318744579839
0.5769580845761575
0.5699663890465365
0.5538231745889954
0.555981129259051
0.5538501235151586
0.5611787973218323
0.5571628047648189
0.552199470212887
0.5612292750375985
0.5689531193153299
0.563652990926698
0.5628399207336796
0.5624639262003374
0.5810271422648107
0.5757221892844984
0.5637394869761405
0.5621050886613859
0.5685648742200106
0.5585594065304444
0.5552654757318585
0.5452762457321947
0.5483375928958274
0.5484431831677246
0.544318156319244
0.5394352282956614
0.5389997530472156
0.5380311888240698
0.5273785515724987
0.5221115189758774
0.5261918975447519
0.5299528556738096
0.5217332168611837
0.5119767558558954
0.5186123127310578
0.5267380975223943
0.5309319863760389
0.5337336764806209
0.5518823409148433
0.5717376910598874
0.5858887519466751
0.6164573537304978
0.6527258369978501
0.6504556273877056
0.643925019972028
0.595564785509329
0.5370987870755711
0.508469089402581
0.5079716472283692
0.49777266476367865
0.4888669671841809
0.49542326092177935
0.5050861467289502
0.4946789407446034
0.49394186687808794
0.4929898777256267
0.500917534838021
0.477688281522441
0.5032790813892539
0.7443654491782741
1.0
1.0
1.0
0.6275816061397487
0.4453907491546151
0.5911512870032432
0.5521128552324577
0.49824698262536893
0.49469262741198616
0.5022836751004776
0.4912929856274445
0.4859032771837355
0.48906294166033276
0.494897827392985
0.48355091770902375
0.4907694807364685
0.4942782849054931
0.4990785662682137
0.48691082691667287
0.49101397711630695
0.49090027360574096
0.5025555163595874
0.4957456919038191
0.49530336703342986
0.5085274979140642
0.5275532095071869
0.5355092491859844
0.5332594823396504
0.5459021527776368
0.5734021922697916
0.5871104189254568
0.5955119351422755
0.6130949021442931
0.6523228999264418
0.677930237451813
0.6874768773576949
0.7015913132428249
0.720411223509041
0.7392799109115199
0.7295821005389642
0.7188067623205878
0.7046603712062967
0.6833088069567077
0.647788205802452
0.609833454298113
0.5863244430421393
0.5674227835164938
0.5408019026686561
0.5249535370586029
0.515971166542403
0.5128358186705706
0.5058025435782783
0.49567345457921314
0.4941253153654184
0.5053467238018083
0.5100848344230302
0.5113291953910574
0.5053995427723459
0.5199450703965866
0.5308226263576074
0.5216344448152082
0.524387959383897
0.5285755142169027
0.5323721335570819
0.531216207884015
0.5309214150505273
0.5286167678628324
0.5317724089161879
0.5234299540255294
0.5197994458011237
0.523381831136821
0.5234539077131987
0.5168913720245891
0.5004669359176717
0.5083019011288146
0.5142550099893899
0.5082703425289374
0.508678111483312
0.5120834109181145
0.5173301852793275
0.5130261986471158
0.5056012936954705
0.5085265667008141
0.5186820583064286
0.5252181653668812
0.528058388599541
0.5417768941939696
0.566925371685768
0.5831864545761715
0.6178916899379155
0.6376596285782635
0.6380783366869769
0.6384792255864374
0.6077049785659361
0.5589244079537259
0.5119243276427012
0.49872139390652476
0.49558959652391293
0.4916415183242965
0.48747044736027395
0.4950408545346825
0.4889035649359353
0.4900507610896261
0.4897844471424868
0.5062482625296603
0.48646853878390084
0.48531035097939146
0.6272886293669636
1.0
1.0
1.0
0.9427234160026966
0.4730803501311126
0.5153822909682407
0.5923599861165513
0.5261997249129713
0.4945515365586638
0.5105825383171059
0.49655727576630815
0.4893970279635975
0.4897872599195936
0.4994827613109386
0.49350377060125095
0.48399918028538674
0.4833757765737744
0.4965156854582629
0.4928870104697688
0.48488397629323465
0.4862075975358695
0.500685891748902
0.4981585218448667
0.500473512209861
0.5056856727441859
0.5197306383784037
0.5252069415185787
0.5262247919931097
0.5340093615760554
0.5525118847642125
0.5713389770690025
0.5826732201610682
0.5988431097028059
0.6299721495124017
0.6563470028239757
0.6686917379869675
0.6828804045648831
0.7093927290952287
0.7292170032094978
0.7380176775969621
0.7423265964365193
0.7484622095436503
0.7440920671469019
0.7126379938425649
0.668571661910655
0.6354666040003585
0.6077570124582249
0.5795545962906878
0.5459881029717398
0.527149749702033
0.5319463258374116
0.5283889825697429
0.5086219022579594
0.5087417268981915
0.5121007148756269
0.5185632438293938
0.5067356688781628
0.5000203046139192
0.5203286826661149
0.5254341604164083
0.5207243722352105
0.5190138667093316
0.5284725628583308
0.538906006387866
0.5395025351054247
0.5285330780320124
0.5280762566506134
0.5349072141302046
0.5358923902298334
0.5327789668122895
0.5303982882328468
0.5405672801313202
0.5331283679260284
0.5235923715913808
0.5198031258327221
0.5216288687823586
0.520121822451465
0.505947375276482
0.5064235757846312
0.5174595200316597
0.5170025398183236
0.512126163938065
0.5029994988614374
0.507155403138476
0.5101795735374489
0.5121406190498061
0.5063155464766952
0.5140049409964512
0.523678671029846
0.5340213458207699
0.5476891929299395
0.5654193145060458
0.5992764237569749
0.6402100559121902
0.6339249163090269
0.6253936828648408
0.613760892864007
0.5757654498414182
0.5044376691156089
0.4803969024306715
0.48811481578136773
0.4927446364521309
0.48172845910389916
0.4809101769085321
0.47782354207813854
0.484503319125675
0.47497748710883486
0.4774933183791082
0.48762726796890943
0.48308060649019174
0.4534524908065375
0.5316231705722069
0.7874822817741779
1.0
1.0
1.0
0.8279926014096212
0.4374045708357217
0.5380172400334
0.5764437287903482
0.5120632359434085
0.48964343368491353
0.49415113389628884
0.48146581572446945
0.47629945624641384
0.481366726712643
0.48495386705758425
0.4698238422834969
0.4705620155252953
0.47392862788055534
0.47968915608061913
0.46333130400114353
0.4665188855205799
0.47625213939312944
0.48163931203735616
0.4826196281057677
0.4801485557310315
0.49009272773080753
0.5011486823278801
0.5074689608819919
0.5129553961402807
0.5230372475859524
0.5456551477354883
0.5538523857569994
0.5666661700216811
0.59002327954588
0.6229421339844883
0.6425201525105164
0.6553913182139134
0.6850871829786083
0.7043049355351894
0.7186730736691794
0.7252172355437715
0.7301578719441314
0.7276108248519323
0.7079690014516784
0.6629358490200127
0.623213318632027
0.595971354713887
0.5675669214072813
0.542366635034694
0.5177555147672551
0.5085371141212047
0.5052734949162745
0.49713654551715675
0.48383108288993437
0.48099854402950337
0.48080685417407487
0.4815056405118111
0.4740679933067552
0.47677489398743333
0.49093291947074447
0.494736011755932
0.48320383838131153
0.4902999767397212
0.5020544826102243
0.5110059610197439
0.5064368124129736
0.4999236941793185
0.5063001441124311
0.5119056583279141
0.501144328876614
0.4968834464628067
0.4988425567106585
0.4993910422201183
0.48597324078972093
0.47822241661195825
0.4839273753112856
0.49316827444331135
0.4910183518297771
0.47903929727880545
0.47713833433546426
0.48995247075994897
0.4832652550511917
0.4759858570897805
0.4725733774329818
0.48382541917294536
0.484939235109624
0.48400322503356785
0.49445773723627495
0.5282870732044225
0.5454596891841047
0.5615179300600498
0.602025277091896
0.6326231926227772
0.6273147182380694
0.6106549193659537
0.5694083053044253
0.5155097783261456
0.47257876351598205
0.46292878091355893
0.4533420618728473
0.45445240538151604
0.4573272093443276
0.45567551072406803
0.44457483376764684
0.44929637648250986
0.4525720741821396
0.4607916562112816
0.4433934958241957
0.4272606929690969
0.5357884679099757
0.8744958535269205
1.0
1.0
1.0
0.46987794091801316
0.437606193374548
0.5580049252204582
0.5028926058528829
0.46026806928805675
0.4498450376974324
0.4496676751139571
0.44910279912314977
0.4553895451946036
0.44991307819505016
0.4418457954996363
0.44217926277032965
0.457398964093448
0.4586189479468629
0.4537259804118638
0.4513837294050969
0.46347567275196166
0.4617030422810696
0.4621392468554843
0.4651198762744223
0.4799272282293698
0.48441243695962066
0.48636369446829164
0.49844996513461276
0.5264986431850414
0.5489866144254013
0.5538171698895445
0.5839258328272926
0.6183312600360258
0.6554813033659131
0.6771036882261494
0.6967219717298161
0.7221694039270906
0.7475556550379504
0.7554355386411558
0.7529354443304616
0.743298797588875
0.7219711918231242
0.691673104801754
0.6426921480623781
0.603268691235783
0.5801631749193996
0.5525346490813932
0.5204451580242015
0.5032261360077684
0.5009322466303231
0.4970895188360438
0.48882605354443254
0.4819459694633556
0.4878605213838568
0.49162805229694345
0.4799781086625134
0.48127713577619813
0.5034791791688408
0.5208104546518594
0.5090290854762909
0.5045178010797774
0.5520122526841261
0.714363299461334
0.9479328545526325
1.0
1.0
1.0
1.0
1.0
1.0
1.0
1.0
1.0
1.0
1.0
0.65213692501449
0.3957939960029878
0.41343806814118933
0.37553046119649736
0.3174843550755722
0.2831688316119365
0.26693226894169264
0.2488094711300015
0.24333110348823433
0.2274982141708112
0.20771434540882225
0.19984755317139155
0.19658761595653212
0.17952715136551803
0.17082224460057188
0.17368064493288413
0.16782332600811928
0.16853774529381177
0.1749795822917613
0.1589099516996444
0.1281555500793162
0.09256760448509045
0.02358703576915149
0.0
0.0
0.0
0.0
0.0
0.0
0.0
0.0
0.0441758558258865
0.12491900884846237
0.20347883647418655
0.2640010875052389
0.302974216662828
0.33760948443671834
0.3702817383048731
0.3706801848750433
0.36537770042524886
0.3661593231343212
0.37650065713910735
0.38226812870205434
0.37187164870556844
0.37945909602250216
0.39289371994335365
0.39707034967096794
0.3874935001512461
0.3918301669329334
0.3944324901089574
0.4047775970344983
0.400492397400747
0.40139661711672076
0.41226955914054797
0.41848431619349863
0.4161111943025821
0.41731507335704177
0.42436541898115276
0.43288896286130346
0.4256015306949289
0.4189945296252948
0.42744554918943906
0.44231921791822676
0.439268532211583
0.4258908206522232
0.43202006664793446
0.44061946741543095
0.4463054580001873
0.43482425724504425
0.43761235445810354
0.44742774271690566
0.45060513404534974
0.4386105309961669
0.4357371449487749
0.45171650288726317
0.4539310723566351
0.4479715455713558
0.4433625225370067
0.4520028137975219
0.45931089293533855
0.4515176361997126
0.44837623473323357
0.4592921764672406
0.46940716329294796
0.4529074308262139
0.45191720539934055
0.4564352652306055
0.4691032884257841
0.46484184052128424
0.4543985139581431
0.4588752246750477
0.4729397063523179
0.4655223763466448
0.4573622911616603
0.45837525609031127
0.4606367058652305
0.4682920321090485
0.46566359506319194
0.45586901573157973
0.47356601349682964
0.4795885853915457
0.46735091686519104
0.46681255991575465
0.4733198263631307
0.47626811134133523
0.47623313600701866
0.46607265039730406
0.4751833665096089
0.4840500096649312
0.4769530498819251
0.46813052512185066
0.46999703918971514
0.4833679041045379
0.47354721570377495
0.46550011241167316
0.47133100277242634
0.4814849141623167
0.4834561162601735
0.47419229682998976
0.47414049175179934
0.47949705291538586
0.48757555995258545
0.4770302535229359
0.47046726656534077
0.4850263868953887
0.4903612583004535
0.48011488023272114
0.4718192782842885
0.48131239709643425
0.4906295301640976
0.48338543196235617
0.4776954999289676
0.48097350065640415
0.4894512733484232
0.4876417027881527
0.47836667681432543
0.48899721867692475
0.5098218145757412
0.5313847504433515
0.5421094891143168
0.5597415571471346
0.6068899291319076
0.6489777035231821
0.6463572420910355
0.6325525277540793
0.6259560874834673
0.5726761672652744
0.49330866366795023
0.461496788992459
0.4809929739676749
0.4870758701814494
0.4709710511389881
0.46187822162353553
0.4707574141460419
0.4697197597211911
0.4534931519274291
0.42883257516447
0.5266576893274315
0.9030571937784302
1.0
1.0
1.0
0.5227371003089025
0.45351099767261627
0.5939032515278271
0.527589506646661
0.47906710466076935
0.47608079965140754
0.4656534478292317
0.45282293443456245
0.4496951067467904
0.452300575743652
0.44993486387987963
0.440160147317333
0.4497774180714201
0.4523242232337843
0.4413276832349702
0.43226113817460277
0.4437003914107942
0.4488505549627032
0.43723375104601114
0.4387220440680668
0.4531839848302333
0.4636244585264456
0.46385904548682977
0.4644000024901687
0.4788930373150747
0.5030936674848148
0.5140550140454343
0.525566808259742
0.5451568649400376
0.581105939947991
0.6059548703618887
0.6240504165066634
0.6473143547794779
0.6835610930162342
0.710629217948761
0.7117749335354012
0.7309776278221974
0.7554741749850585
0.7531123362834216
0.7166210991340174
0.6855323910878602
0.6632813558454514
0.6253297861766592
0.5841411739813184
0.5465172871967062
0.5311829316950789
0.5256007131380763
0.504597910673005
0.4894077340262011
0.4866226731554327
0.49468525103897687
0.4965693993456897
0.4841160345110385
0.49406071929326617
0.510531371672734
0.5113941481281318
0.5049119348281315
0.5069326465847533
0.5207441995713782
0.5228915075580759
0.5116828521291541
0.5062659341892229
0.5064582419849782
0.5109344025411674
0.4973038471046888
0.48708142354855866
0.4862323502276668
0.49178743228887994
0.4798044776615568
0.4693979697960008
0.4638429354460082
0.46879497047852753
0.4651459902188865
0.4513048271150679
0.45496450964313684
0.45331230145313384
0.45251110689280294
0.4476022379886936
0.4433373184939323
0.4594225243547263
0.45255987668485653
0.44593350825370487
0.44413550635166177
0.45492603746238547
0.4593714256993081
0.44746814753344877
0.44784955002419835
0.4715823131377867
0.5104132024498953
0.522162945064147
0.536275654843892
0.6005041992583761
0.6568917018241571
0.6315218143036985
0.6132969851462715
0.5969288585474257
0.5270707624943569
0.4315517256614422
0.411601910532295
0.42429232284472385
0.4235988767207566
0.4249423666544387
0.40818847669892405
0.41443720657149186
0.42835232047929483
0.43295264497514163
0.4161767671737199
0.4193962767790613
0.4104760495395895
0.41782659271132505
0.5765718274554381
1.0
1.0
1.0
1.0
0.43244933063322755
0.4242827163267485
0.570048531509128
0.4758041466645335
0.41567122083900393
0.42793774285572284
0.43405801442033776
0.42580108711432196
0.4080358078437573
0.4156718451611695
0.4226632009274174
0.4190606567306784
0.40671019425984606
0.4099128239842784
0.4280189759668149
0.43230514614567184
0.42151440522097394
0.42684057022715105
0.4389288698507592
0.4460591589220867
0.44679445665924356
0.45108622668837384
0.47897867120287607
0.4992215509107968
0.5096702915342424
0.5112333923280737
0.548232887020833
0.5908689017935644
0.6033742240485463
0.6286101037889846
0.6588260437641955
0.7077799020294352
0.7318492580309734
0.7455288029646787
0.7687135754245811
0.7858042015223459
0.7787120603053286
0.7438184500488159
0.707891701527002
0.6709422888880888
0.623808160891119
0.5700770083603439
0.5299673981659845
0.5157608242171063
0.4953724835014162
0.4712615853451765
0.45198135083472907
0.456771448111402
0.45476221024946845
0.44682207121233
0.43807013494701436
0.4542794013256488
0.4695951088864194
0.47048042891292796
0.47350348905480094
0.48923870757859805
0.4993457435381818
0.5046015186336603
0.5874040993298738
0.8312316165403948
1.0
1.0
1.0
1.0
1.0
1.0
1.0
1.0
1.0
1.0
0.8983503794004568
0.41378645451508744
0.3818917981547849
0.3778810743594474
0.2935344850334136
0.22552850468379265
0.22364980387322317
0.20997924865366477
0.18690182333137734
0.16197228573847608
0.14716918313908126
0.12681913212434695
0.09848960946566568
0.06633026688551098
0.042459818877114766
0.03855976225677811
0.023643910248711996
0.00545633630075546
0.0
0.0
0.0
0.0
0.0
0.0
0.0
0.0
0.0
0.0
0.0
0.0
0.0
0.0
0.014310558065677093
0.09833856945533474
0.17702300919294184
0.24860857111861273
0.2946720373233419
0.31497039710188074
0.31094301380319284
0.31322599312102134
0.3310057597099087
0.33197291441078375
0.3263869683523244
0.32762373472120415
0.3479653718409999
0.35025873750666514
0.34519900691285726
0.33757386101582093
0.35450362401135466
0.3584403771866312
0.352727759191775
0.35265373544346834
0.36757741467985816
0.3771465384695949
0.3748186379634835
0.3651007379803674
0.37479707109484045
0.3797664231052453
0.37342154520016013
0.3670129476469528
0.37093647864975576
0.3802398983984194
0.3776557704557105
0.37831191688217125
0.37569368957814675
0.39349172863008686
0.38400153757942085
0.37342491523407506
0.38051142253288617
0.39735763168214877
0.40054196977600826
0.3878413635757306
0.3870399450545232
0.39760045792114757
0.40503167166373355
0.39565171930480425
0.39100617381560027
0.4117232668180403
0.421879522012096
0.4054093658026817
0.395663359197724
0.40987707319671196
0.4128462076982233
0.41378690914452615
0.4039251565857727
0.40505539055977885
0.4220501196115884
0.4232055791951884
0.415971543330914
0.4176505700153258
0.432118147587885
0.4278299999398377
0.4124798025144802
0.4162643903896536
0.42501232533335587
0.4319481105798796
0.42179903812192554
0.4141283090602569
0.42838952389482954
0.42958053246882744
0.42654423076475023
0.41819143374070517
0.43271756113319676
0.4369528412318875
0.430994783358035
0.42171524801899285
0.42705670376853566
0.4349211339179758
0.4310083268757114
0.414555276208646
0.428856353499153
0.45246705712378965
0.4459168673167528
0.4319436559162579
0.438495728871194
0.45254969757366137
0.44186170725494645
0.4347477864397372
0.44035049320659675
0.4477929259580503
0.4463652336452698
0.4370219644845871
0.43944890560337047
0.4543830227968484
0.4591298466254248
0.4496319206546051
0.44110485654922194
0.45141314646633146
0.4625071778339116
0.4563710091152219
0.45074894588808057
0.4526337982701487
0.45572408832429206
0.4553042396083198
0.4551076039062263
0.45241975060032846
0.47848081704055545
0.49124155561393035
0.5002798763174592
0.5300691698994123
0.5702868620987983
0.6213503903454246
0.6703179702083947
0.6623757757097403
0.6579184264612236
0.6287272666677125
0.524113068410747
0.448754071927271
0.4535743230158496
0.46329895202782645
0.447127834535177
0.43094317717265246
0.44805850383305634
0.4595266909874722
0.44699775069022535
0.40469511618276044
0.4777734302444682
0.8444048797171646
1.0
1.0
1.0
0.615875387206146
0.38305776658254087
0.5790901259287106
0.5176692051919393
0.45907927246288754
0.43350981594151017
0.42831575031571206
0.4121782808243629
0.4295343099360368
0.42666998445943116
0.41483118500705246
0.4037236404962609
0.4170285638624926
0.41552577159233656
0.4065198979202565
0.4069722250795612
0.4216196369983109
0.4279632531189022
0.41790882456052725
0.41530558549678664
0.43189678222953765
0.44845516084402437
0.44929110510015463
0.45443505680673635
0.47628370671181486
0.49963785928109106
0.5124758725812691
0.5279976680668498
0.5572471378114633
0.5942912110992972
0.6141644481378291
0.6263413360111368
0.6470895024464471
0.6814691942458981
0.716431150550459
0.7256245120919969
0.7368790157868148
0.758212269835549
0.7616975233858116
0.7353187611341463
0.6973675605911255
0.6692443220066341
0.6346923747909069
0.5978436295609507
0.572022129478818
0.55843386999121
0.5476353216964288
0.5238490958946833
0.5105245034260408
0.5133493461419266
0.5333110865410046
0.5246153033412003
0.5171563910471345
0.5214246793523963
0.528689971075228
0.5427600506181968
0.5411830433389312
0.5382456763817649
0.5553675652852056
0.5482413845271469
0.5464953880195992
0.539227307075909
0.5526269917064626
0.5535187309457438
0.5422194361405598
0.5215834052553613
0.5304174216656334
0.5382431524139186
0.5309037845898354
0.5118865352840298
0.5189467106659097
0.5340622213163074
0.5172136947324923
0.4982768630665365
0.4983184440959184
0.5097362064268388
0.4961655874960453
0.487744881765626
0.4907564750008871
0.5102065034332987
0.5088050535133913
0.497973320558626
0.503123529063752
0.5139703631453707
0.5234522831933675
0.5109707614877596
0.5030110080975936
0.5148293179176657
0.5232150194190623
0.5157916774942554
0.5172132470588837
0.5630545807801832
0.6084423553384459
0.6214672886698172
0.6494215017206078
0.7197886243826084
0.7440128493629397
0.713460985624452
0.7106651492752002
0.6551719683075582
0.5786563930327581
0.5128500798046842
0.5040499543208277
0.4923096106018849
0.5165919845469898
0.49367403039006275
0.48981612800863833
0.49269685389568674
0.5120913148503317
0.5200957922683869
0.5160079932457061
0.4743473761646347
0.5148829017363975
0.841965792005959
1.0
1.0
1.0
1.0
0.4348562566652661
0.5553566723168187
0.6608715488234524
0.5678014016428103
0.5081968665746114
0.5112513121599905
0.5000273474421781
0.5152066891165121
0.5111575926996111
0.4990451799291664
0.5021751153344123
0.5162591033643794
0.5129055164106588
0.5019242604176759
0.505201310283466
0.5216060534015995
0.5276992683820612
0.5182351653344137
0.5143850639934955
0.5401445906608595
0.558886361202009
0.5594877414120427
0.5591630027156379
0.5919876704378161
0.6263644871405044
0.6423784267058666
0.6613370377542325
0.6983486466417537
0.7373862101095615
0.764468316497622
0.7874821784673092
0.8182962345340397
0.85757020746832
0.8872296407424738
0.9020635759607876
0.9105036157959819
0.9232024122801693
0.9124828642948868
0.8477601024546839
0.7904920609880246
0.7406706063971
0.6901359213671978
0.6494585112953265
0.5910874397250645
0.588850270954367
0.5835705668927628
0.5496009156103259
0.5390922037249735
0.5402414710506176
0.553172896574742
0.541284448190247
0.5361656079442353
0.5521443995690924
0.5692843744962841
0.5723635611283597
0.5728992304682217
0.5707235714805049
0.5791698340012063
0.5891690238171529
0.6759100171040131
0.9213184795572271
1.0
1.0
1.0
1.0
1.0
1.0
1.0
1.0
1.0
1.0
1.0
1.0
0.6419378774439577
0.43484686478486756
0.4459984718879169
0.3710405348698743
0.30772143895618037
0.2948758661719164
0.266975859419516
0.22917055150479193
0.21306291279247894
0.20303433789905853
0.18521049006244877
0.15192742832277148
0.1325670845700405
0.12394061316352456
0.09300578254771334
0.07225681014075765
0.05928313397673328
0.0475980199240996
0.03607798939055211
0.026043674973360353
0.03241231984263537
0.0
0.0
0.0
0.0
0.0
0.0
0.0
0.0
0.0
0.0
0.0
0.0
0.02927060285206462
0.1334198581815385
0.21808566793368866
0.2770084219537624
0.3205970527291804
0.3599307112737361
0.37839546082729686
0.3687173171019535
0.36712048593036845
0.38404411811950906
0.39059065329518844
0.39078516497729765
0.3798789977595353
0.3890700070989809
0.40530085371404934
0.40644054380597305
0.3911591960032874
0.40401963225804893
0.41915073897410304
0.4212201761156115
0.41698987443033586
0.41752631926670336
0.4274218702353667
0.42848492223481244
0.4192305148148233
0.4260920107230725
0.44063468086418506
0.438746429743689
0.4287617699167761
0.43047012555325115
0.450384693923983
0.4501966115399134
0.4348644105700483
0.4381110388068551
0.447719606672088
0.45951855528604
0.44142265961630966
0.43709281826274005
0.4534645370799767
0.4586706667802204
0.4511436562961414
0.44883583283348366
0.4601155377123078
0.4770493907002112
0.46730185387905926
0.4594730535102148
0.4551423827242679
0.47699856346725306
0.4673403716997294
0.4619084813472011
0.46764618863100493
0.4761212713383688
0.4823808027105548
0.4731164037016775
0.4713887826658702
0.48884483898815506
0.48851406767724825
0.4688739552799821
0.4709561190547472
0.4858390550129791
0.4971168404894753
0.48516555342813605
0.47387615726900323
0.47601722985703765
0.48789666589189123
0.48713238374405227
0.4764454146948777
0.48381531419809365
0.4915525652094822
0.48209992632446824
0.48149278579368443
0.4911340706480164
0.49935753925286736
0.49745508259187493
0.4821335847383284
0.4801752034534427
0.49481693186149966
0.5037244957480553
0.48418288369330603
0.4890180230932389
0.504531731414177
0.5027463361292404
0.4900035353889388
0.4850175502505133
0.5040153009505887
0.5195544674360699
0.5116060976193654
0.5005639724375515
0.5119940152373926
0.5229326781902064
0.5130131217007076
0.5040520715269355
0.5178686184658259
0.5360523074119403
0.5314048059686786
0.5200706805194574
0.5188095346056123
0.5435850093799963
0.5307736555621154
0.524451416780823
0.5314383431197922
0.5454517699882254
0.5516744890935764
0.5412245921396046
0.5571653616351276
0.6024006800075618
0.6390888661354004
0.6610130196857684
0.7222702822754885
0.7830471735270891
0.7777717913156954
0.7677813312351828
0.7163377986453795
0.6298684645493318
0.5667241351120632
0.5500564881279988
0.54470740546003
0.5365098108217866
0.5452507001666264
0.5429235020770343
0.5197739572907472
0.5272585107110589
0.5030094800047664
0.5977614093230412
0.9567388565140714
1.0
1.0
1.0
1.0
0.4953381669967122
0.6193783406273946
0.724930756358108
0.6033491767620408
0.5382056488328405
0.5572673076631844
0.5545435329928275
0.5336218870942891
0.5303725201292256
0.5386198182910124
0.5453976864689711
0.5336091652961171
0.5162825235561799
0.5266641718731224
0.5403602731496242
0.5402408163792259
