MLII
0.5
0.634898151895319
0.5
0.634898151895319
0.5674490759476595
0.6110999690163004
0.5259203001165204
0.6276465154355368
0.8690632851972712
0.6982778947844445
0.860580425758658
1.0
1.0
0.9923966115891005
0.8799706424169873
0.7310430806397877
0.6445582713292816
0.6099892780712471
0.5850144724558912
0.5217060657133538
0.48499550695396626
0.44640681946013805
0.4121742941901174
0.41659268640593544
0.4445180168253188
0.4780073809719553
0.38419085800594965
0.2911587158814951
0.3434529757412298
0.7658021259831156
1.0
1.0
1.0
1.0
1.0
0.8759071571485855
0.4252384356966939
0.4948784624868212
0.5224521865931704
0.43324510669233013
0.38917264259135853
0.42920444192182705
0.40197627248762435
0.42836428542710847
0.42933200861820753
0.4594736963034064
0.4218433992537989
0.43895743242727325
0.43025385183167775
0.46662599420682715
0.4458492876029355
0.44760153845049067
0.41332920442465965
0.4648238464461385
0.4788545541393803
0.47771588298046563
0.4500327737056219
0.5036890543513762
0.5150441007665365
0.4939174052207383
0.4949251343321627
0.5123642924677959
0.5311558794134578
0.5314565853868767
0.5149484660035264
0.5145613934532982
0.5165945740931728
0.48602203533572713
0.5123232300444245
0.48493063715730944
0.5074421030428599
0.5075735484817712
0.5047251330154641
0.45801425872928414
0.49752350665467243
0.4668389785146599
0.4731908535038477
0.41000862883491324
0.4510402701042121
0.436211770205134
0.41519727575152093
0.3571089487498184
0.39675535723557875
0.39766281894089295
0.4100801221147455
0.393399840365113
0.4286078767457324
0.4466700605407702
0.4790084983405237
0.4552755005196302
0.5163310319527474
0.5834504968342742
0.6231154335138209
0.6524440982472293
0.6377730272881089
0.6588811969840915
0.6321138781694227
0.6040799634704955
0.5691447983064952
0.5695902986158479
0.5
0.4554838054836579
0.40295925339855365
0.42092729489562475
0.3980358468236139
0.4111463983401179
0.37669076255751294
0.33228649788667647
0.20830046026731538
0.3379004374947109
0.7279663944823666
1.0
1.0
1.0
1.0
1.0
0.7637339318366486
0.39324428232393016
0.4576553664490367
0.47734430372098907
0.3943390324707391
0.3621855737828107
0.3517596803325503
0.34299038531198484
0.3744372997357611
0.3851065839156119
0.37880669932356004
0.34301236077231034
0.38877714371892513
0.37494594773548984
0.38754369856814314
0.3688463383656324
0.40855347370170697
0.3963917791454069
0.4258439695697146
0.4006598315521721
0.42641485619239905
0.4416240784938149
0.4527139282497437
0.4516343805492083
0.4459602544020541
0.47650947537453386
0.47575544158752614
0.47937882724703285
0.4695580887491788
0.5176946339422959
0.4918029689134258
0.4992131819174121
0.4687510247625711
0.49938081727404837
0.48837464901430083
0.4794453141896473
0.4469161027211442
0.4554614260319025
0.46937172210126654
0.45385100758117797
0.4380554101828197
0.4473703897286406
0.4618466739778908
0.4175479405891753
0.4264459487386868
0.3983916320707729
0.41496555264136636
0.3816094150118069
0.3693753630646066
0.36850509315815116
0.3997329619239116
0.39149085009660967
0.40010197764698646
0.40702054521763975
0.47511896998489417
0.45362380214276526
0.5126315453759027
0.5402446875550582
0.6003155254688108
0.6052478020157713
0.5911207684669344
0.5652166931069166
0.5575410587605794
0.5722026221274125
0.5347573988674799
0.459915910725642
0.421489574269973
0.43348155294982976
0.39897610067068445
0.3846640210655162
0.3662962872812613
0.4040350770942867
0.3535410846021822
0.2591654253176914
0.21348923703902903
0.4988037180551417
0.9516352949221829
1.0
1.0
1.0
1.0
1.0
0.6527736995306544
0.3877273670279484
0.4872396034432498
0.42117889650603413
0.35312684263318894
0.3242766144449005
0.3583541039646253
0.32869191687067356
0.338312093656733
0.3495270694917131
0.37534466772851804
0.36290873430691006
0.33857068339541907
0.36220470053337983
0.3669941031501283
0.39097036982800865
0.3757080738703885
0.3881404682466181
0.407308253657907
0.408441209547318
0.39097646504003397
0.4107527576294471
0.4299498342899029
0.45279613045759526
0.4129336732494499
0.42089652790225107
0.45437175590138124
0.4712070714017945
0.4422163488996049
0.4550231320857626
0.44342959727768694
0.4683073936165599
0.46429967367841574
0.4499202208466085
0.45424858601816603
0.4562056228110215
0.4390543795736816
0.4196610468873205
0.445816456269476
0.4353635112749771
0.4298930295749597
0.39643232530175876
0.4054799977132252
0.4182349206172484
0.41329730193968894
0.3852266606172988
0.36647615568488867
0.369351155650739
0.38830015941109064
0.3746265829327299
0.3695589293754736
0.3932686077801913
0.4043666874181608
0.41695964008932307
0.4171867812856826
0.4553550689458218
0.490115349525386
0.5222320288766253
0.5257588544872973
0.5636308820953253
0.5489944429020762
0.5486718951116316
0.5199599872464213
0.5205134551010545
0.5288859716762906
0.4691502893257896
0.44093420890958307
0.40421852440718775
0.42414093155524296
0.4017962913324492
0.3757475800107576
0.384113504142321
0.384339944737542
0.2878085445447823
0.24707523379445906
0.403021171182819
0.7771038780103694
1.0
1.0
1.0
1.0
1.0
0.6874965774822991
0.4422538051450151
0.48906078358939586
0.510382038876992
0.3847115393452193
0.35186418390433694
0.33898239600294783
0.3805031118825137
0.3577442729148772
0.37306668986961
0.36798780174138573
0.38709349480753363
0.3710707398617167
0.3653320140814536
0.37329588128211294
0.39433286134020296
0.37100711051755847
0.39520498125452963
0.3787007365367178
0.4112336833793222
0.3936514464510449
0.39650301527711
0.42268365485140985
0.4312596147611484
0.4284914856885921
0.44653805263982915
0.43881521196224665
0.4434105223629345
0.4720030410791221
0.4664522171482668
0.47142022682284573
0.4573716035913188
0.47748876078984204
0.45589208022847955
0.43878256733959553
0.42615711222084335
0.4697739675285796
0.46802425077079934
0.44124884680474574
0.4374676741125798
0.43958600719308183
0.4496583810437209
0.4384647467668312
0.4158259055340885
0.40841330940861803
0.4104158195676474
0.41109590367517707
0.39303778364705816
0.40821494540994274
0.4384906438611324
0.4508571666725457
0.4477991312779343
0.5140076904091742
0.5399130516163384
0.5745459760072913
0.5499149328308764
0.5754470117347383
0.5538068620504283
0.551247046448215
0.5130338004054644
0.5103092114035349
0.4698025998816956
0.4523281531618175
0.41075747834317583
0.39045608478805427
0.41360934866204263
0.43374486254655115
0.35601476996708586
0.26278769943892105
0.3425282933185747
0.6587666274036229
1.0
1.0
1.0
1.0
1.0
0.776180746160285
0.4216328450403113
0.49103540617819014
0.5084982574672455
0.42399914062118044
0.3634354387771525
0.3925742606022658
0.37313986131031707
0.37148037607641643
0.39903748803181494
0.4132874107674886
0.39336867679361487
0.3887903642623396
0.3869636842714562
0.4143217603703465
0.40429468133533375
0.3960776186964644
0.3954378495560491
0.43070755982577175
0.42404916793423536
0.409167085579885
0.4264221848065418
0.45203053607437604
0.457755481980442
0.4474980861494289
0.4461970749099626
0.4555871956411529
0.4777043908105427
0.4694937291480793
0.46211913228501234
0.4718397127535777
0.49842360476929637
0.46354874104919547
0.4691147026046788
0.45120724487270686
0.48631914279626054
0.4558721070263269
0.4513003116261459
0.4487800170396218
0.47364557190633433
0.4525962118160288
0.450525594027793
0.42435962337304084
0.44866723153259463
0.42042596901484275
0.41355538068542746
0.39331529975847407
0.4188292517989348
0.4188359652887955
0.4146827514936625
0.4111309953233916
0.4216520131211897
0.4372035092945449
0.44080830473981053
0.44387147324231
0.462214803522349
0.4767935863474196
0.5000723141265564
0.5347229812630463
0.5595527643177889
0.5871257339102168
0.5734918876296836
0.5426781781807892
0.5246343391975097
0.5433778086123988
0.5102451323562577
0.4577933278465001
0.43692530956288084
0.4345178405983952
0.41451039141497903
0.409255062218514
0.40519861868837526
0.4174759329115737
0.3298352944975814
0.2763528997412425
0.4129547197054597
0.7927715976655905
1.0
1.0
1.0
1.0
1.0
0.7519334121454511
0.40967544097160974
0.4714167014383195
0.5018176720793558
0.4253104757793018
0.36363578103991684
0.36723819986200856
0.3906876018379179
0.3826396479181119
0.38234398904767497
0.37812573863300003
0.4009402020992937
0.39871343113672425
0.394885932356939
0.3791517738824468
0.4079144508119043
0.40234809141644134
0.4221736829678962
0.41189127252670216
0.44166779449750626
0.4364232923698852
0.44164448544402884
0.42866784879382214
0.44948693437200793
0.45797646831468086
0.46843519560176716
0.45907013561048793
0.475239759695151
0.48969227220097544
0.48960761527322116
0.4740312939699942
0.46624817519595324
0.481430284995628
0.4706850935565722
0.4487016513033854
0.4575678302716445
0.4724696299615564
0.46578382599885615
0.45118108586967587
0.43424761687803537
0.4641229056223829
0.4436200383967354
0.43584536588528566
0.406684500230322
0.4236458877059769
0.41712359823705986
0.4165284963034318
0.3775299135043476
0.40125556557708864
0.41636365681403176
0.42449796704748544
0.399974829443424
0.41830170998555527
0.44047654015351767
0.4678426229508216
0.4595066998523566
0.5025641490201466
0.5410589908217995
0.5856687144547705
0.5703151227559827
0.5722781717092271
0.5611380663506329
0.5636952202879126
0.5261851357931181
0.5119075403193585
0.47224361958585764
0.45959430689712316
0.4374672949200781
0.41585278396517406
0.4239594888917648
0.41969794370922003
0.4271622726601055
0.3859239005075469
0.3416882574683119
0.31124013175351944
0.5388552883715245
0.8925547585385194
1.0
1.0
1.0
1.0
1.0
0.5397230299750829
0.44717386850176355
0.505098988857394
0.4455650523300111
0.3864925846763249
0.3921936479169038
0.38694459951863136
0.38134530027928276
0.40267196616779727
0.399341688603167
0.4165911864636508
0.3939888934204885
0.4170413261517475
0.40425838944101206
0.42083514351033013
0.4005201614849372
0.4326975348384433
0.42670742512157267
0.4374019019965495
0.4242874427492148
0.43581692977017983
0.46579136065729354
0.45879442881934346
0.4665072848959907
0.46695709335376134
0.48897521321174126
0.49217558131487793
0.4856886913242519
0.48618685089403835
0.5123003042580508
0.5019791188674786
0.5068853888201451
0.479619844998109
0.5039748388510665
0.4918493849459865
0.4938955930087422
0.46823361600751257
0.47883673088494144
0.48528544051783074
0.4810790717296496
0.46421178557147724
0.4530720310559734
0.47921761303332844
0.4612838113864786
0.4481862512726664
0.4184605886576195
0.4530175654834386
0.4233987716686577
0.42599874246886166
0.4170778885672431
0.43549126713829284
0.435573937254828
0.436359451687205
0.4417457256781125
0.4671521558577864
0.49404755088969887
0.4826798927813208
0.5053438662850124
0.5363535376438325
0.6036578393168119
0.5934724127650527
0.6103199549978752
0.5919537583442265
0.6042926587577536
0.5618229646799406
0.5561152984132876
0.5382526079129695
0.5068940937811577
0.4881195690832489
0.4389616416505565
0.451003981695716
0.426341396112578
0.4579336284949213
0.4354314122509565
0.42826647107215565
0.37586544786575515
0.3226602628620053
0.47751759687877815
0.8648276693510247
1.0
1.0
1.0
1.0
1.0
0.6715780361308765
0.4874010274927533
0.5229810225859477
0.5163354605100589
0.4328187152597326
0.42170121591268517
0.39801101415435297
0.4102536263608392
0.41632095805383695
0.43115674038314244
0.4140213501567754
0.42482001350519544
0.43216231659124443
0.43650517366456476
0.4361052014866059
0.4281422348654999
0.4529941037023882
0.4621445095830469
0.4583563908663712
0.46244025625520085
0.4860399071060263
0.49811091678036645
0.4928749415807214
0.48876458738743667
0.5050259953016536
0.5194218358500584
0.5131434561257516
0.5142236258850835
0.5394990880436836
0.5463639178696508
0.5552035149169692
0.5186604089435789
0.5429490088478051
0.5347158467470916
0.5490724352059487
0.5110290341781225
0.5229818780541788
0.5260309763752702
0.5261818473482722
0.5133624108282759
0.49636659949586737
0.5208784310110711
0.5000729175687663
0.4882340450727233
0.46802653379376447
0.47733019219032896
0.45710790915226707
0.44754531367320843
0.4375266281729336
0.4463797266166404
0.45734338707695976
0.4602781312646632
0.45184381457020384
0.4774125063406263
0.503768762703059
0.5229083180884555
0.5089330254185186
0.5641329824689966
0.6000640747086611
0.6423118237454118
0.64745485957337
0.6457976867349954
0.6269715114138513
0.616631687887054
0.5934121873850297
0.5765895203892784
0.5507820500980178
0.5162690710390389
0.499835918269663
0.48017999613180057
0.4889868802493506
0.486614231090735
0.4704087758857323
0.3979129219012298
0.33737382321601805
0.5137214825349585
0.8885316930226136
1.0
1.0
1.0
1.0
1.0
0.6859698335537895
0.5325383662825656
0.6015715877212042
0.5433067794603424
0.4686986833334397
0.4346059877851112
0.45163013210499703
0.4333020113595463
0.4440454448918313
0.4576085832982126
0.47507147745338807
0.4548470978636817
0.4546449641597494
0.45656027683172756
0.4760620189442313
0.4634415290474127
0.47376143921709807
0.4776006241596796
0.5020162630973763
0.4952335773398654
0.48270634647724664
0.49598506175427354
0.5138098811572172
0.5266253730614139
0.5194706234272005
0.5349761905814974
0.553928097924315
0.5635168407150265
0.5490666996642692
0.5670729715978566
0.5534760738316298
0.5798051727047311
0.5373169204342985
0.5464223634344992
0.5490967966728124
0.551664187166311
0.5327314964940174
0.5254747911326623
0.5341299521346183
0.5422667783863321
0.5274242615308821
0.5184211176898785
0.5097120056726847
0.5189306417435281
0.4907939739602476
0.4607726421833075
0.4672815056921542
0.45466787850258567
0.4709954128495263
0.4475339498756048
0.47503912911997803
0.46765956252917773
0.4915705318470354
0.4702703790316366
0.4853090989298833
0.5224422816440739
0.548259045796309
0.5261817197465126
0.5455854196062121
0.6166682927186269
0.6487753182512116
0.6552557138063009
0.6411674920257789
0.655520280493463
0.6350297305142569
0.6112782987179328
0.5795317001249374
0.5460473398737953
0.522361731924361
0.49997923862413457
0.4604245875346439
0.4874328014002748
0.479581598160682
0.4863934528605907
0.4265906331565989
0.365679435202642
0.3813811699383196
0.6757873844219502
1.0
1.0
1.0
1.0
1.0
1.0
0.7936420780521269
0.5298418116352718
0.5931877417983173
0.5549074968469092
0.47677240382965325
0.43850078404542414
0.43625811677032045
0.42704509475019464
0.45078765254224357
0.4756793377805593
0.45809561988784014
0.4313245403352622
0.4579680514234964
0.47064493845289873
0.4592227275548598
0.47421665650826944
0.46394570503427185
0.5000186852849006
0.4794737966688135
0.4893762238396044
0.4744158035396083
0.5260620423854058
0.5191364326468703
0.5217273241421261
0.4977976475964277
0.5473805496821378
0.5484012302521263
0.5585277979252367
0.5471524816312376
0.5623903004172147
0.5760933813993441
0.5714040126167198
0.5524438481562082
0.564367252868409
0.5655688196296438
0.5468957950571925
0.5274097056464278
0.5414767920061748
0.5439526308740783
0.5380269845880603
0.5194318638709039
0.5152886768693703
0.523584874024975
0.5017322559868729
0.47964259810526766
0.46536026237802774
0.4783392308608919
0.4758855608332831
0.46033159168850835
0.45175438640581334
0.485018521801721
0.4690968863126959
0.4791745821598532
0.48209038726683306
0.5067201847824415
0.52876218200141
0.5473583944132174
0.5504284828357562
0.5948391783018553
0.6673380447755297
0.6821207798003446
0.673855302879639
0.6791546201114153
0.6630591188974201
0.6457129050788608
0.6218839553183388
0.5883899350420766
0.5536994507165135
0.5487643269215682
0.5000817132925967
0.5008670708332669
0.5011570352055938
0.5245112510205205
0.4761594048216205
0.42834252240983145
0.3495806959791881
0.4932524396563854
0.8747307624526748
1.0
1.0
1.0
1.0
1.0
0.6502231246758585
0.5558482827632285
0.6076973320224315
0.5427475809185005
0.4523602157761637
0.46578677303520977
0.4498254578030507
0.4471778718201815
0.4555341736598016
0.4848629030948822
0.4810636879142736
0.4646174188468648
0.467080058034193
0.4926871404373875
0.5060321856111442
0.4770268902849718
0.48974299056251513
0.4894178240682123
0.5157363045776708
0.5063479334624165
0.5110721938155887
0.5190586032223901
0.5492791387729129
0.5295287454741361
0.5476029098018477
0.5429135636547904
0.5701478282778802
0.5583433454883098
0.5706023136207624
0.5613884368725268
0.6037717866899335
0.5584999559791827
0.5657385550582998
0.5437874220731124
0.571639124943702
0.5634232264742095
0.5413297664878169
0.5481457747164635
0.5471948992908944
0.5682406221226474
0.5150651176941781
0.5272588839203718
0.5167674573269686
0.5324150174814044
0.49163063155459164
0.47230346409731006
0.4593176229589152
0.4854760303468222
0.44971894020226166
0.44599207777494276
0.46619741180542373
0.48316619166677166
0.48960449434252507
0.47823901877105024
0.49663272227443966
0.4913118069902029
0.5329934342390737
0.5184980895172713
0.5393893098199148
0.5705560263770499
0.6438586517128265
0.6471445007788236
0.6706016233788687
0.6809789065938735
0.6880493906203335
0.625130658692651
0.6179508399505564
0.61207299263859
0.5592235535700241
0.5108672706158975
0.4958553765663153
0.4897663859668667
0.4787667316982339
0.4873251910259673
0.4667093282910882
0.4557672030903527
0.3690815856429677
0.37705795637482586
0.6624385170250444
1.0
1.0
1.0
1.0
1.0
1.0
0.7108111859717067
0.5115122087920587
0.6080004948372648
0.5552018480681871
0.4634692772188017
0.42662253875847345
0.4023471668318421
0.4323552359249403
0.43459903307547626
0.44281838959049596
0.42527660977552484
0.4571512074512184
0.45425312130430573
0.4624296998708968
0.4358943285469423
0.4665127235494766
0.47985636789429387
0.4896614785915599
0.4522027663009964
0.47956630561679514
0.49264049785087344
0.532855298562308
0.49673196196693736
0.5053031150806978
0.5269117925976365
0.5441662385355059
0.521938474311555
0.5337190642964964
0.5513276391675158
0.571505156853356
0.5592367098666521
0.5378069805627292
0.5681564156360948
0.5544618425611811
0.5398329327206687
0.5203803892995914
0.5253536816713071
0.5241720720755623
0.5338889935237577
0.5006006673376933
0.5087344532550152
0.49810762777064516
0.4973769678726618
0.45593407790007845
0.46415006109721507
0.4432219847442031
0.4625416968682069
0.41788488265458296
0.44137938637582347
0.4300042927190043
0.4571011942640803
0.4277977982074006
0.4379505386450996
0.451988699073571
0.4838858359680362
0.4728454758463183
0.48814022676219215
0.5265938175446286
0.539729038347783
0.5642533806997532
0.6011468515228533
0.6607395335773816
0.690276725848163
0.6690750567301171
0.6185299472131947
0.6292495354716523
0.6294353062911134
0.5712794894649579
0.5123437358345735
0.4877545960178148
0.5029845168791878
0.4851519421391016
0.4587378283101815
0.4628886968428668
0.45562413051586576
0.41293137116699014
0.2895495120933938
0.42591945049638735
0.8103283744271266
1.0
1.0
1.0
1.0
1.0
1.0
0.5488515112152695
0.5665502852399573
0.6237711207219055
0.509887193361083
0.41439983893301696
0.41227521145023943
0.41693626356239744
0.4365756776398916
0.41780998660393476
0.41837795515090476
0.41836202324848026
0.44825736750013523
0.42179133204564023
0.44911377821501725
0.44600605600276033
0.46546876448658037
0.4454421102346379
0.46072863365512157
0.46591679321001156
0.49659253654303714
0.4921055464102505
0.48776761443966354
0.5051581194163227
0.5170098806466001
0.5098014731917327
0.5039373515943528
0.5345383810161619
0.5387829684963171
0.558479223901717
0.5154847522054309
0.5390531575984635
0.5423468230899109
0.5496503841921538
0.5061066010994285
0.5198429888162147
0.5134213353519597
0.5223141805715551
0.4893512797085127
0.5103621903407838
0.4925860344276489
0.48943713344083595
0.4874615488816393
0.4754312980884676
0.47455624904343746
0.4625780868775009
0.4420941650924023
0.41815269321025345
0.4330983272095811
0.43379838383464636
0.42527682508172726
0.4130360848245749
0.4557624767119128
0.4584389681677596
0.47239599435482293
0.4402717877809959
0.45728392254110684
0.47511731291369574
0.5069454624212576
0.4927608950683311
0.5264630810497153
0.5962380253290022
0.662090741373164
0.6485785884033952
0.675892088932121
0.6779832018516637
0.663019183451215
0.6236467994657887
0.5997337917556393
0.5964462584120963
0.5349257690308533
0.5218664072662459
0.46269236008193076
0.4930443070047694
0.4649583556211742
0.47770395153174217
0.43334604284298195
0.4264679163531735
0.3337184498196901
0.2898827970076462
0.5339056135641072
1.0
1.0
1.0
1.0
1.0
1.0
0.6152433600995404
0.5306217334462154
0.5716617168218185
0.4988188286039488
0.41664587097207634
0.40725979864834316
0.380269809395409
0.4225119397475107
0.4118248941785828
0.41903114836367433
0.38405069183523094
0.42915371374034084
0.41854799568638257
0.4334166496552255
0.40791359299296914
0.4248560358453674
0.44966275640259007
0.44879188988181323
0.4326378926921618
0.44917185312772734
0.47116503352366673
0.4644413526313538
0.47576855702341314
0.4691145378373066
0.5091204961371295
0.4959526549967942
0.5120609288668154
0.4925967685194955
0.5326931809253742
0.524840132919207
0.5253617328959825
0.5077621838541482
0.5165990756181784
0.513694186065065
0.49637334807896394
0.4788763651190548
0.4821085944393815
0.5070977223113811
0.472511673174254
0.4828973612877661
0.456017876284878
0.49988579699685287
0.4613374113503396
0.4607132465612295
0.4108880202679435
0.45409946440622184
0.42900190736801375
0.4076824860824269
0.3942422183599465
0.41533491409464063
0.413381461822242
0.4055359210600691
0.41166643458205404
0.42077176463129157
0.4518888116740219
0.4174523050507476
0.43003989071940707
0.43983599659249456
0.49220384472262324
0.47509273061523033
0.49887319878044317
0.5336790119907872
0.617394991586188
0.6393799733081214
0.642661709317277
0.6280401659733008
0.6426109301387533
0.5988271502019954
0.5790676538552335
0.557728740932817
0.5167399714141243
0.4784124558505526
0.4354179602974595
0.429568639355276
0.43948335957396234
0.46696465676970994
0.42216405481763697
0.3890076838097084
0.2692525139661704
0.2991009394756609
0.5245160960429105
1.0
1.0
1.0
1.0
1.0
1.0
0.7558067776505325
0.4859891208389917
0.5514140179833258
0.5123316890457246
0.4053691910914856
0.37875258159286085
0.3514018633019849
0.3688949325280072
0.3872156593457071
0.39482262224966524
0.36815636825225423
0.3757950719287669
0.39085275515833073
0.4112147337576986
0.4006109781920216
0.3999438184715179
0.4220769166578662
0.4438406143539961
0.4096083091690964
0.4274018994719512
0.43724453803958585
0.4718536158015295
0.44944439952268933
0.4504383655864725
0.45166188322492606
0.49672011678163086
0.49472943168275696
0.47089891417287577
0.48831527411906056
0.5122596287578272
0.523989052938305
0.48135975016587873
0.49925980599455066
0.48862033551499967
0.49888791080603456
0.4562335961880626
0.46996136476274175
0.48416765527859373
0.4936614112378706
0.4665471976504648
0.468077406189079
0.44867680141379684
0.46767617172383796
0.43691869414970486
0.40954636980514036
0.4149666586357979
0.40402066260728475
0.38913549949083703
0.36919567526269054
0.3960733346339018
0.39106493780046636
0.40895201676700366
0.37398137577395757
0.4193471226484619
0.42548101302661057
0.44139000039147
0.3944069732825447
0.44027816196348085
0.464699189058462
0.5090063216783867
0.49687750837380334
0.5609427385565822
0.6118145703231251
0.6499824547526933
0.6349916013853466
0.6088832864179047
0.5908669256594312
0.5976071301975615
0.571109615851063
0.5023146085869621
0.4797882042382736
0.4548843645988523
0.4384271396405258
0.3954127130789367
0.4287784544901564
0.4272622782599952
0.43264772227624687
0.3484896420518493
0.274814764259407
0.2955391298393083
0.6042136100617912
1.0
1.0
1.0
1.0
1.0
1.0
0.6950817763103189
0.48036925416578125
0.5737765376951641
0.48497962362556823
0.4145651077523553
0.37550172634387113
0.3683538417694806
0.35612189698146207
0.37450310604714776
0.41192346535965063
0.36864559352189474
0.37561437120556834
0.3728649981327713
0.4112546290118635
0.38006363962151973
0.3956021882565534
0.3930334776489684
0.4225860295281822
0.43070345488108847
0.40066956092046047
0.4188390149172235
0.4383327601620011
0.4641706722451436
0.44819985676680946
0.46655917579376494
0.4646799864546008
0.49749646395662805
0.46967968888872863
0.4922784372708316
0.502244412408871
0.5267049757394668
0.4894784399494493
0.501825595570627
0.48859420381666085
0.5181164574646374
0.4826757354541284
0.47035212552640315
0.4636674816870686
0.4950509389351586
0.4797720080539025
0.45960396668244596
0.4635064595877516
0.4660637971732452
0.47701560768751
0.4339604363150954
0.4235403763263695
0.41384746293785746
0.4252514185249666
0.3900195462992574
0.3956444353496104
0.3930349806898918
0.41322679647141636
0.39380939273419713
0.4001492883545622
0.4209023747412656
0.43978862216176706
0.43162766454707924
0.4532849925517507
0.4471943613947397
0.49893202786054686
0.48452018922751766
0.5430059929102786
0.578521723851923
0.649453842640527
0.6314551640958913
0.6274547780314755
0.5932823280778676
0.6123231742914937
0.5812433217752992
0.5268091313769103
0.4771329709743351
0.4696881193356016
0.46358591476072064
0.42786140215725066
0.42321054972351274
0.43208529435042475
0.4455689557253013
0.3738423230276332
0.27267333578693737
0.359410572344543
0.7987522035435515
1.0
1.0
1.0
1.0
1.0
0.9075170653480595
0.4683354329561122
0.5576924156857128
0.531214597973497
0.4175155999021377
0.34869737814246016
0.3861582969563693
0.3675751372955646
0.3743200746120959
0.36223304319143723
0.39352916610944033
0.37442585904645015
0.379865597937174
0.3646303360240832
0.3950325922374919
0.40833499684641483
0.41157789998722893
0.40441031937209787
0.41775833792677786
0.4280309379153923
0.4331712475958819
0.4356678217938271
0.44087306766414003
0.48349606211330026
0.4529394304462622
0.4691085687533155
0.4549341889301511
0.5009202018814796
0.4717083749909885
0.5005091452716414
0.4738989300372606
0.516850739915869
0.4850063445069486
0.4828684584573638
0.47042551528710536
0.47999107928476165
0.49026856543374553
0.47775530549385276
0.4774052321615752
0.47249444810582136
0.48375398266129654
0.4482439462661483
0.44562780762758647
0.4368303209499353
0.4399936836331041
0.4180256925751836
0.39394750332194944
0.3775417971888612
0.4109797548118818
0.3849657422625278
0.39697085701514423
0.38595560886896674
0.44078049835434674
0.42066658461800055
0.41680552257590514
0.4186453260359902
0.47019880694686533
0.45058683891761186
0.45940218970678137
0.4604404949953779
0.5084328449236244
0.5499942688572294
0.6006794654807806
0.6097688067312566
0.6484453014314404
0.6451298182241202
0.5963272160861077
0.5663325948107676
0.576785647138318
0.5416908124535665
0.4794231818248561
0.4498709194393983
0.43278832701912834
0.43349079758627146
0.40392077441378865
0.4084753756598968
0.38569905971765267
0.367376684176687
0.2410413736974708
0.3349269021064102
0.7168171199290341
1.0
1.0
1.0
1.0
1.0
0.9166832449475202
0.4929456110539655
0.5192177855849338
0.542671316887525
0.4099585829635908
0.3544840162497579
0.3392675708160886
0.3667060406915027
0.3820753769645309
0.37954351848743517
0.3509902007932593
0.3753006057880371
0.38910548211335944
0.38290734472882293
0.3914524139066483
0.3829349058784991
0.40479690997380063
0.39278547903140115
0.4009557862577438
0.3897270355125088
0.4566473741542878
0.42390463331389183
0.45143281106612443
0.44564592629598004
0.48257054321719506
0.48088535415134925
0.4758713764957741
0.4655543016826148
0.5078079003547182
0.5253892468775905
0.5066256829792212
0.4936063136253009
0.5046555914115244
0.5208163068015972
0.4996761858474429
0.49978521041626855
0.48940356186835077
0.5133814707085333
0.48397607501865625
0.4954400804034666
0.4762286069463809
0.49631662861635917
0.4715348441400137
0.463468108169139
0.4251492935830809
0.47052207049404327
0.4319147216778355
0.4167838674250044
0.38408543322010125
0.41086862106317057
0.4186776010781025
0.4201244397447364
0.41007760033541735
0.4461097823029864
0.45186226803058116
0.45508836088673166
0.4497417798210338
0.5030391953203427
0.5220448025903409
0.536031413087646
0.5587047390758195
0.6251732998889629
0.6677235600416015
0.689230919308671
0.6498090952905256
0.6426210674781754
0.6362754420716215
0.6404593640296091
0.5498461128933981
0.5060250731627234
0.48711220210407735
0.4968536657551993
0.4631683702942766
0.4406697981637061
0.4603080721597975
0.4624232206951301
0.3858004280532087
0.2658679131047547
0.365069704056107
0.7655621850188268
1.0
1.0
1.0
1.0
1.0
0.8508476772242892
0.5304083450973106
0.6377954596034962
0.5960086823397901
0.42712242654786053
0.4061740065077424
0.40230002635069056
0.4260592501759072
0.4092079919874515
0.4349707602878402
0.4166065247787033
0.45136788342698786
0.4058088152749376
0.4345312208393698
0.4352872221533069
0.46625021998576194
0.43303823455985035
0.45420577288511066
0.45354395395233854
0.47703561138540423
0.48416666508912015
0.4697250591156853
0.49525644174513805
0.5164670814021074
0.5230424734697151
0.4950826658956716
0.5332337909906297
0.525556449557225
0.5756782288997768
0.5214057599485075
0.5492066908155524
0.5658332951748206
0.5745195379958558
0.549767945722307
0.536639838155673
0.544757250193024
0.557516938216611
0.5468939846695762
0.5295051865013438
0.5568556116701077
0.5516576468918122
0.5223191121053697
0.4906083455761257
0.5071276547443622
0.47969550120912824
0.4944591174282372
0.4379617334920994
0.4559813998191413
0.4424739994257937
0.42816855137084386
0.4161951827053299
0.441897528676453
0.4599930402598466
0.4638075243989771
0.46257078476771996
0.4474355404644831
0.49549840888921926
0.484126665809326
0.49564425683080104
0.49316099673507263
0.5449794228252043
0.5487332095443055
0.5979216278586147
0.6341950333875643
0.6770473798445357
0.7253317203027367
0.6897781090565974
0.675996035238019
0.645282456917678
0.6558436658255725
0.6059113642491958
0.5560989776923699
0.5039453172166236
0.507707942238879
0.4808104448056912
0.4607349029027385
0.4438903446714793
0.4616688361714331
0.4474531660382901
0.3593944753183073
0.2747646622676197
0.3099525314667325
0.7240075019843984
1.0
1.0
1.0
1.0
1.0
1.0
0.6325362188953466
0.558102396398739
0.615402416391687
0.4897570070493186
0.42843677039053035
0.40499384762052254
0.41661609865681193
0.3732333154032947
0.4241974030810877
0.41633087365202687
0.42430612172167737
0.4061951097602622
0.40283552284004076
0.4227716248933161
0.44132877639273477
0.40413543596268864
0.41299475625262794
0.43704222855149544
0.44155416718118123
0.4531957995651433
0.4412317438104239
0.4685209352393159
0.4700339438563592
0.49594959524789983
0.46779074435484275
0.5322245632049903
0.5062244258027399
0.5275282031594748
0.5127625771414601
0.5457041758159275
0.5514295587692739
0.5349047609104985
0.533587510995412
0.5213755620606734
0.5469331763019427
0.5156130284260161
0.5039626711528571
0.4983074739759827
0.5195471576850783
0.5115568221586091
0.47198456043903886
0.463572704285012
0.48936073778136197
0.4503112167607576
0.45472008486711424
0.40957184866816904
0.42021608964911017
0.39939651463280185
0.4059195546343184
0.3677632248124829
0.4059274260481921
0.4004887470980229
0.4083925792746668
0.38214525130779586
0.4184574680612343
0.44200311392324565
0.4262721291725307
0.4182971021734156
0.4384484064071195
0.5019020141535019
0.47756582535445996
0.5158673240036639
0.5705635518037041
0.652171712739324
0.6640007531611579
0.6595505568860569
0.6295682784499119
0.6448809484935885
0.6016429990561958
0.5722613052518494
0.48781087649820093
0.48133029981199316
0.44597990991444547
0.43363891929104714
0.40001034454053713
0.43869839877764144
0.42255134515414194
0.4081993880398615
0.2601479884852519
0.23029606861030105
0.5350795960914573
1.0
1.0
1.0
1.0
1.0
1.0
0.5538602901035339
0.4825528884325954
0.536518299216605
0.4047287145323897
0.3370315825135384
0.3373769917959986
0.3643347236518692
0.3485267085616347
0.3500281982787631
0.3644224926286606
0.37017206655986595
0.35267797173711973
0.35838640570228614
0.3754435932989605
0.37728695852005567
0.40673008161842183
0.3565987305385196
0.39890468760479436
0.3886396100394551
0.4221510265630187
0.38507572158598014
0.43304940246321644
0.45407416592024097
0.4644339976611847
0.4553237903144999
0.4541454159087408
0.49790987038986484
0.5038230569144468
0.4872110308513687
0.4889632031005009
0.5107423144682387
0.4991719475021257
0.49056011750185347
0.45931265011490563
0.5000699479287447
0.48573213656948644
0.46927984468486494
0.439158913639577
0.48324263365418785
0.47051939588364433
0.48706220296421343
0.43203523257154186
0.44044923850733053
0.4292384016231887
0.4322497470581198
0.36893877038158623
0.38450017637503586
0.3974560785144686
0.37689724200562014
0.37074664627957227
0.3642035740172306
0.3997495626221155
0.385147891265812
0.37969041120686714
0.3908392009525404
0.4264429054489155
0.4279126788759154
0.4349416317390661
0.4361298683678462
0.4888377969468589
0.5111164797824914
0.5517598589106457
0.6069358628610089
0.6690038145276662
0.6549589044272223
0.6814892624595028
0.6042036081858428
0.6105692177140233
0.5944984158551825
0.5612836719159476
0.4554274205946364
0.4464776059197641
0.4618841435205133
0.42474348496233816
0.401543873269555
0.40020674865846945
0.4281011557057723
0.3815045037526376
0.23310202673385505
0.2570095822134346
0.7296969271764453
1.0
1.0
1.0
1.0
1.0
1.0
0.5453627748696441
0.5093820057020704
0.5722282048118779
0.479796558544619
0.352691221774352
0.3491075067489011
0.3644027647490552
0.3358741727845964
0.33856716347231963
0.3479144182864904
0.3917443706541959
0.3657212276573802
0.36091414415625633
0.34107668413193704
0.3902310134373579
0.3862389065099204
0.37093539860406344
0.3787958228104976
0.4119314714674509
0.425010704872149
0.4356942130707555
0.41584944383127426
0.46549114939886466
0.46511833733922225
0.47240473249903703
0.4667780719628182
0.49118641203714664
0.49853743535840855
0.5155005856507431
0.4766073856565377
0.5042416649228835
0.5058027505893726
0.5044154854520984
0.47179621043121633
0.49347969838379263
0.4914619010560396
0.5055780638298379
0.4722129341876874
0.47375985201438764
0.4833009357900931
0.4693868205336057
0.44644128826330265
0.42982845302375405
0.4221055880348403
0.4252550687162291
0.3822877486123734
0.38143636512007795
0.36818786422322203
0.3915458337096561
0.3751213752722922
0.38652965169313064
0.3936378439214138
0.4456899368807341
0.41565803060446704
0.4271685536437655
0.4343067998525787
0.4874420152297062
0.4742532257293369
0.4973764708589671
0.510239097891023
0.6214150083126548
0.6631636487265867
0.6678009168318201
0.6542489251848467
0.6717741588700904
0.6329619010595904
0.5958907041062916
0.527868683807645
0.48690946266731777
0.4597568128380042
0.4345876761599964
0.41032418184274067
0.4375135943224448
0.45673805278985613
0.43137842430065854
0.30620621382300206
0.2436083675250687
0.49743347480461086
1.0
1.0
1.0
1.0
1.0
1.0
0.6944237106937269
0.5133110463038443
0.6272621277970428
0.502875847718537
0.38818660249617787
0.3707232182677537
0.3831562948991394
0.36118481790318535
0.39807266337605035
0.3864767803912509
0.404228956249848
0.3856848117243887
0.4004616623209628
0.38358900700273557
0.42621141917857247
0.3924853194034526
0.4080991165764562
0.4084292662133017
0.44526745214386354
0.43673844391724836
0.44036073526838954
0.4565619964564142
0.48758283125143365
0.4944975568191519
0.48303537960147436
0.49414986867887667
0.513580700268801
0.5312317417167687
0.5063300388914351
0.522826115418596
0.5357249807477423
0.5591487270971335
0.5145914382902249
0.5181329963993341
0.5024848794179707
0.5465896695871316
0.49498508846953626
0.5049730608595931
0.48813594234152297
0.5347698818880684
0.49525957163140566
0.48876985354796376
0.476553161427855
0.4999410714017992
0.49271468090520515
0.4388073186844368
0.45236542439765887
0.4267719271627775
0.4385941921416444
0.3978109682188626
0.4229834108547152
0.4436774537257498
0.4443048096906754
0.43984322895623584
0.445880430938265
0.47270870336197734
0.4645669763782112
0.45876090236908934
0.4550808258099438
0.5258787933138905
0.5403441352837411
0.569129857377137
0.5892435155565554
0.6688959033987313
0.6838141307648653
0.7146227470130857
0.6655369062677893
0.6681242450215708
0.6409174420444363
0.6454021442008637
0.5713165387492913
0.5238768248605207
0.5097100661515465
0.494103944864891
0.4640336284246211
0.4203778300453454
0.4645294368231226
0.44078935181855494
0.4344959744659674
0.28323250218578677
0.27395372092643383
0.5294313500522638
1.0
1.0
1.0
1.0
1.0
1.0
0.6799114941892559
0.5562389184697314
0.6457324874325019
0.5207607808453453
0.40363635157170685
0.42361805951393966
0.3891913359583348
0.3977664969171703
0.36855200298272717
0.4418187142164981
0.3881895478390479
0.40668750717599983
0.3854839810952998
0.4489525145983754
0.42649726959782025
0.4219754269618168
0.4254729112889219
0.4494888726500045
0.458952487487597
0.44891188992153175
0.44785566242017677
0.4632552685775103
0.5106466699393764
0.5059227308532006
0.4846317573506669
0.5065257571593889
0.55342617720952
0.5300836422968198
0.5517804982785016
0.5427856698400304
0.5961315682417913
0.5402022002680789
0.5469978154976661
0.5417513558917108
0.5854052550605291
0.5397992799434822
0.5380292063165264
0.49844827164112726
0.5532122149985572
0.5307821272413327
0.5138654202681386
0.4907106792003713
0.5180329752956684
0.5153757102125155
0.4959617369004842
0.4466689467155095
0.45721018089381105
0.4475855244470887
0.4247069542212242
0.3997041304428862
0.4325786982638933
0.43363696574717264
0.46428196137822786
0.43721438640792243
0.4607644970702581
0.4704317518368045
0.48030768761986475
0.4625037551376322
0.509911296662075
0.5368569904590158
0.5603240201021549
0.5979216125171644
0.6510189404454401
0.732747498513632
0.7144665729951374
0.6926173132508089
0.6861344439371291
0.6878094669501651
0.6626153232703209
0.6244368498665803
0.5423294390579995
0.5174494971448469
0.5070517064710717
0.49092254503055904
0.46657312375791615
0.4902626881028277
0.4811707813723357
0.45526587023946075
0.2618612181257627
0.35562747274418943
0.7420131117048002
1.0
1.0
1.0
1.0
1.0
1.0
0.6868445547292475
0.6075586839784162
0.6741817718435442
0.5415310766400355
0.421375983241595
0.45179056255511796
0.43952653329114116
0.4349759145182491
0.4119771041899744
0.4564495890142787
0.442507528200756
0.4538204899100525
0.4480478427637672
0.4715676536794124
0.46262018977855446
0.4908637456420366
0.4529408007895296
0.4689373922411148
0.4811657528444985
0.514888507781267
0.5055746668971018
0.5187551426656027
0.5257251188526465
0.536223423922502
0.5354088450447347
0.5238438845319212
0.5488767342264029
0.5927732102601373
0.6051328466808795
0.5710379948187325
0.5964119650559498
0.5941265454761336
0.5954904359895619
0.5549350053342219
0.5763403984560174
0.5858559443482709
0.5767131855682909
0.5447917958036874
0.5573652634071238
0.5545258114004993
0.5690611494052826
0.5247668067298153
0.5549732743813071
0.5252063604647214
0.5432736525632766
0.5011307921879767
0.5076630706742844
0.5006523853039379
0.5219846802999257
0.4636397852266928
0.4660170934109781
0.49687639913353765
0.4964081084955022
0.49986946573187285
0.5016451226277308
0.5596645921124389
0.5544511849228841
0.5457471191926019
0.549968745596136
0.6048983919467994
0.6393137803103455
0.660951318706039
0.7001061454097567
0.7502073888269181
0.7782192112076907
0.7642655962869513
0.7079294272894383
0.7106782886528876
0.6637398442414093
0.6132295181311751
0.5529397782240169
0.5553916529289352
0.5166395037496501
0.5384990303645221
0.5182776242263649
0.5251787723874605
0.49553370243311134
0.4317305270715212
0.30124169331519673
0.40680374843170225
0.9122256572681628
1.0
1.0
1.0
1.0
1.0
0.9663158647886888
0.533871875998486
0.6588196676470146
0.6449050807954813
0.49807548887045316
0.46282471402312897
0.4740567381420484
0.4537795767009839
0.4953183055527579
0.475429711930781
0.4940319020006744
0.4754848795961205
0.48925071783802954
0.4575879608670485
0.4956853374407883
0.5010474145319735
0.5330264233443379
0.4999883997420366
0.4949891124531357
0.5038812105660583
0.5719697781208235
0.524400416801497
0.5517683585342564
0.5787173735273833
0.5851576978232255
0.5591410279541795
0.5658999048301163
0.5858037163494852
0.6152771062649756
0.6193812410063055
0.5853158946425845
0.5971503574876021
0.5872287663317145
0.6148959060513711
0.5627032840296922
0.581847402910274
0.5901807837472888
0.6150663390056922
0.5757380525556381
0.5650268192529151
0.5769073637468645
0.5620599286907337
0.5570897652834906
0.5690637010361936
0.574605262467486
0.5710383648293593
0.5654403117843187
0.5266982646739308
0.5603239340785453
0.5440381740468168
0.5510085153486614
0.5404541949738813
0.5629051541823212
0.5572058259207919
0.5867994411563384
0.5656339554375074
0.6274026411025846
0.6464029306887307
0.7002813407967616
0.7167112764816487
0.7637234359415344
0.7774941403326838
0.8111002729770466
0.7451266955525424
0.711344260602945
0.7292911339884336
0.7055259037453714
0.6249222860918784
0.5932759313135032
0.5609582358393339
0.5659002549013731
0.5544172998524546
0.5472209811845504
0.5606099622349208
0.5120304901418207
0.37743492947819607
0.4351251248577367
0.8948961340505728
1.0
1.0
1.0
1.0
1.0
1.0
0.5647804896856441
0.6533424258691085
0.7016966344125816
0.6081340392790874
0.4769307987226711
0.47405061315188324
0.5052273142148674
0.49533183513335677
0.5029595520855658
0.48896586482418636
0.49220737607983356
0.5081105941319211
0.5153366033576743
0.46431099010399
0.5160230990677522
0.5221043589948489
0.541309971014864
0.5150034757225977
0.528456276375596
0.5279469567457312
0.5460556581796598
0.5228254447632845
0.5674459610628023
0.5557130669987635
0.5800620318779575
0.5778923481173163
0.5734335011426135
0.6005748567191088
0.6173467532372887
0.6055028360620291
0.5662218936225638
0.6320040582186028
0.5993987101491354
0.5949481479287264
0.5692864934970976
0.6115033176465637
0.5972639353272554
0.6044425049636407
0.559002632300871
0.5785219930726825
0.5948099171245982
0.5672809817174695
0.5547870655204987
0.5490663050318125
0.5566802438340757
0.5292773437604208
0.5163435227286273
0.4948368979430671
0.5346363591823032
0.5072812922946814
0.5179025812596558
0.4999219466624457
0.5280021713115339
0.5316349685969619
0.5231203083683733
0.5089186927336241
0.5094273808524723
0.5620223095250537
0.509420170127966
0.5311407142357779
0.5171441223190112
0.6044845573662166
0.5733018558353153
0.6004688731044904
0.6383173361623299
0.6979550762902582
0.7412340637524524
0.7073689346366523
0.7180299760132969
0.7116424942707482
0.6810632671906517
0.6378337246326149
0.5971408832015135
0.5391992463182935
0.5627380033713548
0.5143078474728336
0.4875939761864266
0.49379095685057567
0.5113982872127216
0.48844484921021697
0.45370270229561377
0.39631150699913487
0.29163015367741385
0.4665639584626217
0.8674143244611285
1.0
1.0
1.0
1.0
1.0
1.0
0.6321601976438487
0.5112133350849261
0.5848061090874883
0.5227522397919682
0.429012916620268
0.42011331299885973
0.4251816614587529
0.46002843414672023
0.43987716507660635
0.44917851289257466
0.40836076431076174
0.46088170618965635
0.43956443690364344
0.45202768239987295
0.42603450287846023
0.4681793524085318
0.4533133226290678
0.4760364925505088
0.4642468022807513
0.48597597676392923
0.5077697485442914
0.48737435665334977
0.49495231227546566
0.5075689148963364
0.5395306510815556
0.5128645907747034
0.5192664141988661
0.5262402430372929
0.5609934347713336
0.5631480425422156
0.5437205889528128
0.5271107321072991
0.551692453838133
0.5433054787204928
0.5478534051268061
0.5136383268004088
0.5254341815900407
0.5235751829687355
0.5233645271837654
0.49579444599763295
0.5340699090049483
0.5044725377293499
0.5064583176824705
0.46151789950042615
0.47626488132972167
0.46074699768418226
0.4350473943341571
0.3861541077782778
0.4079450992715148
0.4449721082492452
0.42104277201373835
0.4353563932551624
0.4395562511186954
0.4632054076320653
0.4657108007248949
0.4499798952484381
0.48115139469585044
0.525830040255031
0.5447192611512521
0.5482197424135178
0.5943755197337055
0.6885769762699467
0.6776384929836995
0.6480224476460856
0.6378681321988395
0.6540531472393436
0.6210835288887961
0.6207175403823262
0.5025776316184919
0.4910488680771624
0.46076743089764155
0.4652646215120592
0.40961663393503833
0.4498100833809081
0.40976662332927527
0.4414217963076649
0.31400489151666355
0.22295248173943283
0.3889474015525646
0.936136550888947
1.0
1.0
1.0
1.0
1.0
0.6254158060068529
0.45985944416344865
0.5812989937981097
0.47547196116853724
0.3791961593487847
0.3410193167322342
0.39320482516978006
0.3750619016151232
0.36759594769924675
0.37923010935575496
0.4272399414909458
0.3906836404062212
0.3704743545966016
0.3769322755685029
0.39591281564654496
0.4101030258282107
0.38269319868540924
0.4076040596957122
0.4323590784609679
0.43215568090893297
0.41755322086696844
0.4274431761216603
0.43331509130954426
0.45778807390602927
0.44107476413608326
0.47877788485250755
0.4604869578556813
0.49826588722719956
0.47134647842706867
0.5102497467669879
0.4894114788839675
0.5209125687559262
0.48638558329612785
0.47219683104590277
0.47736167979491145
0.4979761085176836
0.5049458678821052
0.4758804572803624
0.4864708452160734
0.4994008182503415
0.5119079626900775
0.45877727440742067
0.4696559676077746
0.46530422797274157
0.46429854166999956
0.42374513949707693
0.4236262160250098
0.4255319841512583
0.44876639821890957
0.41317395493288156
0.4154224529585625
0.41633327795560515
0.48163585688779476
0.4559144468516728
0.4795412062614878
0.488355137015667
0.5399104889465638
0.5817776394824444
0.6447788433775526
0.6680699277906461
0.6717661471591934
0.6604488736689711
0.6380053245074413
0.6154403164007913
0.6362499944486246
0.5835836558427236
0.5000477186559078
0.49522788905164
0.47113403792682573
0.47229029076950074
0.4473846144168066
0.4498405930768642
0.46320484963985303
0.39640740098333577
0.22403073140654337
0.33720999476290076
0.7944777727150261
1.0
1.0
1.0
1.0
1.0
1.0
0.5485094635074983
0.5190174466691279
0.6355590504473704
0.5072929667976724
0.3957504722495459
0.3845471728449718
0.4103433980319565
0.4100843204540995
0.3875280167352684
0.4155077924151465
0.42915968472192256
0.45585435329253804
0.42396993238717473
0.4276000420150873
0.42248457443961884
0.45680299574748406
0.42199300381939253
0.4273894076840623
0.43548835233796035
0.4813153395477353
0.4456514384020873
0.4618631499080448
0.44581169082250954
0.5025936411567757
0.5047973986854426
0.4816593302734301
0.48993807040864723
0.5285632797578342
0.5412213890309643
0.5043355948520247
0.5295849511902367
0.5433767627740232
0.540836757536994
0.5023973574013906
0.5535967121367033
0.531754401280102
0.5137751287334502
0.478025708785874
0.522776259991561
0.5190627884929608
0.5671376852383351
0.4961799712583872
0.47045127921073104
0.48583435143759707
0.5310400160134663
0.4790391677698872
0.4649043874467691
0.47293649226459833
0.49566638969758137
0.4740090651146338
0.4585438414740139
0.4871197237169712
0.49869125277933934
0.5024192759320143
0.5124374650748085
0.5387126459718962
0.5697524464332487
0.6064674669798832
0.669837148681155
0.7150923659392017
0.714951568872771
0.7514228006523987
0.7178999939968802
0.6873197042172847
0.6846420027469579
0.6861463055397918
0.5840085940048058
0.569022655474569
0.5390810169242586
0.5476725869548188
0.4523674894650174
0.4842132661885195
0.4593251419154793
0.5128854068961586
0.39955557072547265
0.2775844641014086
0.3300984399861961
0.7319114471194259
1.0
1.0
1.0
1.0
1.0
1.0
0.5035528246829647
0.5468172267320516
0.6576050345169058
0.514727930044437
0.4189035504953189
0.4004801785962485
0.4236820458048496
0.39379427324364497
0.4059910631474278
0.43303754734459166
0.4584378218576319
0.44304809520111893
0.4377218998186908
0.45727384042706165
0.4458849346331285
0.4519471505162539
0.412037864703355
0.4632128737047034
0.45690818390644933
0.48472261470176103
0.46264116676399275
0.46031677075645394
0.48920823938874136
0.4971152344804791
0.45902752860579354
0.46242294751359747
0.5267662752798221
0.5173346362127391
0.5254152435914917
0.5127698285414096
0.526876189932217
0.5129573144754402
0.5212927291110676
0.4754676862598911
0.5119599376179881
0.49937436018331305
0.5000202529124295
0.4719283251618386
0.4847486705219297
0.5160376301420103
0.4896116005394554
0.4832554287383986
0.45138635010590783
0.4928442913687342
0.4443262332434691
0.44747181450546314
0.4268212676987462
0.4623616261681702
0.4286986988053889
0.39356364328901133
0.4210082564604646
0.4503836058351346
0.4806007022514144
0.4124824157741781
0.41763799737952106
0.4346753110762996
0.4808219051037884
0.4690099760674178
0.47942507057092093
0.4931293815405696
0.5552755041198223
0.5979465718870728
0.584940901150211
0.673404131755867
0.6922401593298544
0.6988670965666044
0.6178655140041693
0.6162120790511342
0.6355916755089736
0.6056087168577378
0.5255726437823629
0.4702705905081217
0.4929081879303248
0.43264988445373714
0.426084443446206
0.4012599761670138
0.46337747992218536
0.4112535394059538
0.3491488238586437
0.2285787599400564
0.2965766166876098
0.7594659223115882
1.0
1.0
1.0
1.0
1.0
1.0
0.4375077630438957
0.5304249398895264
0.607733041819776
0.49648923697936304
0.3505722499546545
0.39961650960162887
0.3745282511050921
0.38377780190351896
0.41002355751823155
0.45049082940512986
0.4070825186272643
0.37400676230317537
0.38098237422148534
0.3959920977202239
0.41255411208772885
0.3765885392873102
0.4169022052875625
0.39647002630528966
0.4120215374168049
0.41535143182987005
0.4382510600516185
0.4407265602649604
0.49732890407609
0.4729943699516288
0.49959001237005285
0.4986199489350905
0.5404306471431478
0.525578551356656
0.5093714293064744
0.5361459961096309
0.5477423915173611
0.5587876832343412
0.49764706171283724
0.5163742978889005
0.4979503079062607
0.5157490121351904
0.45799195185187935
0.5004016584669702
0.47827031034150763
0.48742809081914906
0.450169834347972
0.46623388199064
0.4854782226913105
0.4933442227590139
0.47237227346098687
0.44415288722708357
0.4204459131843123
0.442895527222117
0.4185611352679574
0.42123594345094595
0.4248968855165726
0.46995874614000555
0.4596520739434717
0.4383461766491221
0.43741585547096545
0.48709492216141526
0.5105874417902476
0.5362224274062994
0.5122987220142422
0.5941683847888392
0.6347157894637169
0.6698615768969228
0.6563559389585708
0.6876073674370062
0.6942698233853983
0.6324314093401027
0.6217039011449096
0.6084605177211347
0.56962222216449
0.4621680128965079
0.42240185002761416
0.42718044858315984
0.4401115087790526
0.41559743729718096
0.40693563484213835
0.3511401253253369
0.23705741022272037
0.22403283196441168
0.6766195664893588
1.0
1.0
1.0
1.0
1.0
1.0
0.4510890835134725
0.4448436471654012
0.5041726402538124
0.4291364424069296
0.31380949290594223
0.3332738094145384
0.30031125250943713
0.3311610588314454
0.3595503246882571
0.35490840390697675
0.3367910951692955
0.35078521462725776
0.3569777744544026
0.3495648562919213
0.32412601599869334
0.35372521904175486
0.38189782255735744
0.37073192381144654
0.35041054952107303
0.34349961146251345
0.4049150860562918
0.40438237515083114
0.41172963185726746
0.387193474593357
0.4482391647517209
0.4310543932466026
0.4418002702203325
0.41928939410694765
0.4696071251491819
0.4766268024536048
0.44314435774502875
0.4463357603087473
0.45381702232275634
0.4665092782754184
0.44433560461002763
0.4254507985660445
0.4137301830164956
0.4492297273254609
0.4140172465410387
0.40425997854065876
0.39218791855742774
0.44209353323065353
0.39154975746285764
0.3912663783033549
0.34598979114779604
0.382176815042848
0.34903368656123607
0.3299837612284996
0.3248445733826532
0.34777668270582895
0.35298901177250014
0.30627405935535484
0.3273361136679202
0.32683753556004813
0.3909652778024457
0.35923532011197357
0.39093208006558616
0.37358406599659344
0.46512693462118176
0.504831679627961
0.5570330444688856
0.5437059488823638
0.573043310719487
0.5863948684213716
0.547598594762363
0.4808251652604568
0.4781006274354674
0.4038685676148591
0.3656219146303913
0.30601015421434596
0.3219887218729795
0.3262911190651755
0.3163811151422505
0.32081731726040447
0.29334472615824
0.26679203869059054
0.08727826164373056
0.15393273387641485
0.6097873134854408
1.0
1.0
1.0
1.0
1.0
1.0
0.4869367702315951
0.35362810258241906
0.4753383187518695
0.40502941197904363
0.24449160537551543
0.2505267932460037
0.26094017910818473
0.2922346808175206
0.25249077557338556
0.2731121514048928
0.27384142532753486
0.30198525974819346
0.24465989412524417
0.26865402633855767
0.27756961547257347
0.30856251408152013
0.283922630658051
0.30902581214767844
0.28469725816223446
0.3322632588363392
0.30474469553129857
0.27905904499216505
0.3132429568571591
0.3588296267558141
0.3485742003855135
0.32141331118194083
0.3516165823537419
0.38881508454947966
0.36633069310392086
0.3657537479484473
0.39947761539371757
0.4084123126102484
0.3967595860666583
0.38175804388901236
0.3597904106480536
0.3808846662450071
0.4013733324145129
0.37265495089292183
0.36583643673886723
0.36261589927362337
0.38472336066123747
0.3450659280448362
0.36308939309893173
0.35466134184772297
0.39093192693101086
0.32547926725832566
0.3086519536176549
0.3160260065387727
0.35945918089580897
0.3309900740470918
0.3719447716569026
0.3497071809807192
0.42030621434405246
0.42697081511504137
0.5133555186071288
0.5537225305616202
0.5782227236783761
0.5798255364628512
0.5841561218846507
0.5191320300585537
0.5559029199631643
0.5282669887610616
0.48815968131863113
0.392976166280578
0.4291144578981264
0.4379302953905503
0.3603394005816522
0.28985748739808814
0.3930819181349557
0.4133452541879728
0.29990202488923584
0.1462473615625104
0.39227838148712146
0.8852080939162388
1.0
1.0
1.0
1.0
0.9323526573053895
0.33385648670066026
0.4721716746001148
0.5310429097559556
0.3817950272739618
0.29875366496838285
0.37499717279768446
0.3700274578844763
0.42817407054372714
0.3953222870098395
0.37371972839179024
0.36794713154576697
0.4363851279923098
0.4140261427301267
0.4163432228711031
0.3914003566046642
0.4515039407216027
0.42716457310075545
0.4299048770282333
0.4554483091061113
0.4791310179438046
0.4817284902760405
0.4570594203431983
0.4862237849283583
0.5162253101813213
0.5218467381030898
0.45979142885676116
0.4719521003047964
0.5099026954949779
0.5619688198116094
0.4823139011004135
0.49711497471257166
0.5198398776408174
0.5037729089260516
0.47907356276544694
0.4379161228671678
0.46204410190014106
0.49653133207934086
0.4952998351537666
0.4419923499585964
0.4907337694338077
0.5006067332998769
0.47139629420689744
0.4267856320614468
0.4987705348989885
0.46914226809723514
0.4656766533025129
0.44247140139701074
0.45636868331581465
0.48093594835225123
0.4598845771893858
0.43162173613814786
0.44256530414966877
0.5159078143779244
0.4961757416734141
0.500722497771838
0.5099540080524754
0.5808319421452584
0.5861753276336206
0.6260452468632657
0.6486228046996743
0.6960858280950433
0.6745829835671632
0.6777848717485548
0.6325588793707954
0.5865041138474123
0.6259471488259465
0.5860675380720466
0.5267821399050022
0.4616373971015669
0.5031966523149289
0.44187342387195533
0.4441539993827063
0.4492421706195632
0.4794821470919389
0.4051911605598275
0.26260595651825136
0.32668905480475996
0.7747829036469815
1.0
1.0
1.0
1.0
1.0
1.0
0.4139991390863068
0.4570782435239901
0.5863713337636753
0.4205503679352809
0.3695151921546436
0.3520338106969839
0.393720160730767
0.3665148084205978
0.39043013134998916
0.37665559249551284
0.3925151681260252
0.3958765332086669
0.375302676991384
0.38085134553776945
0.4228459642049052
0.3933431448203809
0.3748743973606987
0.3953574025739102
0.43117890172907963
0.4234679487728347
0.40082459254428154
0.4062074988423207
0.45601442566322054
0.4558269307470356
0.42538373406153457
0.43484998646875483
0.4520019459352344
0.4783071532485813
0.46256583126682316
0.4720992019085906
0.45675744485070285
0.46370124046258365
0.42913807551363004
0.43610884056724475
0.40720222409964696
0.4614429071822957
0.42913648407269844
0.42218688140929894
0.4121951506079863
0.44176864234481855
0.4190449677679019
0.40422248095356733
0.3872276194865278
0.39903021382374576
0.38300322508193146
0.3620522293449455
0.34505978243073726
0.38117129905763836
0.3611625457831854
0.36231617516502357
0.35047461068516567
0.39213885133302373
0.39035393925978906
0.39087097298434037
0.37226011255062624
0.42668143913661105
0.4439575100984398
0.4620689351311749
0.4476937197186496
0.5328914061766785
0.5878623910004467
0.6017788955736487
0.5677815122720759
0.5853977700591899
0.5633476893792919
0.5411612818892988
0.4850141158242508
0.41330389234575665
0.3864321590077421
0.37933433087099167
0.3329773102564596
0.3450019651507635
0.3597587077991333
0.3683664597129147
0.31387710118907164
0.17278438223058537
0.261245706282807
0.6753507737834699
1.0
1.0
1.0
1.0
1.0
1.0
0.3814490756864614
0.3729451716349814
0.4756130259995672
0.3439701981009673
0.31426138853376584
0.31113946791458824
0.3189959754668055
0.29573169775359553
0.32305921603005894
0.33977217723784287
0.351551529843649
0.3248021457270944
0.3280798461586157
0.3413832156401161
0.3670357839090034
0.34434789753586326
0.354138183096005
0.3732551712536445
0.38773995833416813
0.3760713823167996
0.381564567606263
0.4078682872116075
0.4021605195291963
0.43634589322485107
0.3969433036103705
0.4244119615915126
0.4216139669672267
0.4582581856406941
0.42872599934460887
0.44057078197233174
0.43171603248138046
0.4524407357027644
0.4018313683424376
0.39822969443361955
0.41071709327198686
0.435871636924691
0.4038526352171948
0.409493011085425
0.4170349050343269
0.42932382750375275
0.3935125490106561
0.39436573060556646
0.38827052273932033
0.3755450094615386
0.3760886902154327
0.3656463316473686
0.35099869982247656
0.32272014216721956
0.357147855753195
0.33435984361810683
0.37688419382592775
0.40615373259141724
0.42353188158991645
0.4038128065880226
0.45761263716545597
0.46618923397499107
0.5185810569342293
0.5541023365269645
0.601630958214087
0.6161924190291173
0.6023110118305789
0.5638224846905078
0.5428034699345106
0.5637383865217448
0.5027219422220465
0.47794084634419065
0.42414195694215107
0.4455663074636577
0.41017102213026957
0.41818550997560866
0.39286901466964597
0.4062064268178756
0.36243731643749283
0.27819370730672355
0.23097096564258282
0.5146056591182953
1.0
1.0
1.0
1.0
1.0
1.0
0.5637857903629848
0.417839179156854
0.5617351324157671
0.504405340749802
0.3622263077641443
0.31416168911696085
0.39995843339612863
0.42277011762909417
0.40354911595149706
0.3605292607845584
0.4160486324567837
0.40424241500477437
0.40806800795250553
0.3725242787466788
0.4143268437343365
0.4041160058541034
0.4282617805403942
0.39230898536366343
0.42926796825339786
0.46747896588790033
0.45541254387565716
0.43031670249681253
0.4451347084581587
0.45437772730333953
0.4672378039604871
0.49210184543269075
0.4678620145676636
0.5091957811313557
0.5111752648145497
0.5085507465159643
0.4736553831546927
0.492271931670592
0.4873194658650726
0.5214606708690692
0.4556191360218362
0.48117547003024363
0.47508330495075735
0.5046316375336927
0.45545761814080415
0.485667177700316
0.47909468025355484
0.4657608521991333
0.45816671346955185
0.44820793531638686
0.4615026743038215
0.4510841307256606
0.44341953887530455
0.3896636256655424
0.42824138981109383
0.4699544913724919
0.4813757322074614
0.42485308086560253
0.4835853923802926
0.4934779187249008
0.4862434300264809
0.517015405493382
0.604895534231195
0.6137732045279579
0.6444939905159146
0.6150769990573807
0.6787263313092933
0.6298688138012831
0.6216227885923099
0.6021092055446374
0.5647121806918806
0.5139656723568639
0.5154185932398885
0.4369771882884489
0.4541706018718795
0.4755723574599978
0.4368850396259026
0.4350788370420088
0.40882230219718885
0.3571468419310545
0.2769545381870137
0.5363747460004974
1.0
1.0
1.0
1.0
1.0
0.9900775648710372
0.44101800965701055
0.511335471295535
0.5586700625540386
0.49452679107220376
0.3990763223131567
0.4344360686884752
0.4095332604784433
0.44185097299582876
0.43838678140557424
0.4564967364222352
0.39909405301746814
0.42220652566934264
0.4450221866357976
0.45390068556319313
0.4405696258226424
0.4459344014922378
0.46575897443754055
0.48282042539634223
0.46322183276948287
0.44786643480228305
0.4999440896674522
0.4975410547322053
0.4970653981575506
0.49799972758550365
0.5351047594569509
0.5244149896659749
0.533345933652779
0.49823216664273523
0.533634297932971
0.5216721723332209
0.5374370897278788
0.49477683909818415
0.5162265158211885
0.48622499987241746
0.4985800760521023
0.47198243596869816
0.45384220481403065
0.4881026600470122
0.49599526704501307
0.47976652110333473
0.4586425747293278
0.4732141704812096
0.4250675515636235
0.4527851605067107
0.41221138365604937
0.4379715505027705
0.44017020026139775
0.44452982413068864
0.40982370934482104
0.4199851669744429
0.42863656877531947
0.4619864561681656
0.411765152699523
0.4347846355536184
0.5047156308913874
0.504618496668549
0.4918493435229886
0.5519861041460604
0.6191888289983669
0.6030243803955829
0.6209589166712952
0.6019186338224085
0.6223016295312537
0.5802769331532385
0.6030045127007677
0.5235051519953051
0.5002458009493601
0.4617637247456699
0.45558342830331544
0.40341521801149727
0.4134183905294003
0.42073964431397065
0.41986733825010314
0.34624583681721866
0.2527831050189232
0.29720739069052676
0.6781029209827083
1.0
1.0
1.0
1.0
1.0
1.0
0.4736027939055988
0.37622206983281437
0.5313026752356509
0.4338167088441308
0.3780778437378717
0.35561449427549874
0.3323855981481287
0.3280613116484699
0.3585967578028142
0.39845408311518293
0.36027540584211426
0.3647889277190714
0.34713915662996025
0.38515736752925706
0.3548239452081165
0.3667732868751661
0.37470261660773024
0.4042439281505404
0.37818818036460994
0.3837407865481458
0.37062675716345134
0.40741467991346336
0.39632838805729936
0.39532310550743377
0.4004351231479445
0.4417786226157315
0.42671454965005473
0.41731020137368297
0.40744942065122397
0.43579315337438435
0.4379754546878156
0.40373140689430304
0.400012487998581
0.3967313329938736
0.42244573790543904
0.3690993609302343
0.38079232830446064
0.37294227454444134
0.40346573630982385
0.36382729455833196
0.35268754090927645
0.35605875335885007
0.365463238085418
0.33046091133856575
0.31855421848730847
0.30415680544012647
0.32590440564714124
0.2888697278119445
0.28957313596676026
0.296758118216118
0.33748269344998666
0.3156933912151475
0.3126065002669064
0.28694948197025216
0.3341094548491295
0.3272897833398285
0.34907781593801035
0.3433881734617296
0.3884440679199821
0.3998610626371377
0.4620026003509937
0.47522891497505615
0.5207232775332797
0.515144946162407
0.4988631762585006
0.47539180973905504
0.46490632830446177
0.4500768430272732
0.3890438932873753
0.3213798007537404
0.3140806984475211
0.32060239517225336
0.30960026782962885
0.2916822282221022
0.2905461797558949
0.29558719893085134
0.20151257802652803
0.16931741276119455
0.45777867264959093
0.9891366402204372
1.0
1.0
1.0
1.0
1.0
0.37030982068236906
0.2869708806254649
0.4198379972976129
0.3605044190623922
0.2672565472521119
0.2419441456815387
0.265983400099635
0.28337846790766574
0.29450725091331675
0.2859841164049723
0.29417724389421074
0.3073729232266812
0.31504937699822594
0.2933608326250557
0.3006461991352204
0.3114573620941162
0.34186845011689704
0.31272742274938176
0.3487611287149771
0.3575561135717479
0.3853474879344666
0.3658170283250721
0.3734770708198424
0.3903424545930737
0.4149761305108539
0.40002447330137353
0.4005014499671839
0.4154728364705965
0.4295073425212431
0.42219578503812727
0.41243820589893376
0.40379324112550324
0.41831835702612946
0.40687754850535773
0.37373435305138314
0.3704990088288628
0.39456663502320766
0.4054857836366897
0.38550876435736
0.39869393132021735
0.37713140200223083
0.3891657418023892
0.35070697649376903
0.36233817450603534
0.3390781425334211
0.3529749363713569
0.32702011064430525
0.3370873255160721
0.3253936917837318
0.3526221669677423
0.3352583270198939
0.3490307353561797
0.3610382962784523
0.37954389633238667
0.3936278295865667
0.38801748009683523
0.41437577571925865
0.45391431529401916
0.5118028368390458
0.5171114735492723
0.5430759325432547
0.5348015409410248
0.5420674005064805
0.49059600986930896
0.49060121471936224
0.473915943523129
0.4344122713954577
0.3657634010112366
0.3551702936576742
0.3513186695334607
0.3498292600107484
0.350185896016864
0.3283125459066073
0.3527999453132204
0.30883147391365406
0.22652987803404995
0.24735895149110304
0.6287013633042902
1.0
1.0
1.0
1.0
1.0
0.9038703016358534
0.32113177352309386
0.38106429888037424
0.45056473442904454
0.360087631861209
0.2865574382899173
0.3080275908786965
0.3077530217686368
0.3208028016013274
0.3114424204356164
0.3235822646739589
0.33083569688961145
0.33354900972606993
0.32939134172636453
0.3350101600518419
0.3460296780820086
0.352567196641526
0.36111062034413177
0.34137426043422997
0.3742437848416727
0.38941702247188015
0.4114522566906068
0.39563165363731967
0.41356666535175196
0.4114010057372221
0.42310493534239785
0.3953542258938475
0.43516849081240616
0.4399749499675318
0.4350385257492963
0.4086348560597233
0.4209177185292218
0.40280344484461084
0.4163570811295559
0.3782998818183103
0.38515523319939743
0.4051743951562079
0.4192355181431096
0.40462033727242835
0.3764092177491388
0.38978802516906347
0.3796177131906825
0.3913322715598827
0.3632473852852297
0.3723124074450938
0.36509926422613087
0.3612325532551563
0.3242124943532596
0.31664914313350545
0.31966303371096116
0.3391374973440976
0.3376176511888894
0.3504740036847255
0.34851770536765336
0.3715403307620469
0.367699806084297
0.3976757121872399
0.4038480243943859
0.4477071869873367
0.4612208653450855
0.5148108627872294
0.5286543563767638
0.5458544037790107
0.5192165560517749
0.5188151193599915
0.5000848257318039
0.4790764323869684
0.40078103367553713
0.3864082469728869
0.3660075530681988
0.3857352175331837
0.37000093082633945
0.3778552973391301
0.36633674828978424
0.36656198656473826
0.2774902467807228
0.21615004788223197
0.4531222516819546
0.906701793468104
1.0
1.0
1.0
1.0
1.0
0.4835312514865688
0.3958716028055093
0.5035106188603174
0.45443212081294365
0.32669921842897154
0.3195547052961224
0.3137449886271129
0.3667933229062268
0.35636271667137326
0.36479788685542347
0.3592483120455602
0.3675756653682685
0.34895047691285386
0.3712582250318245
0.3475332861288015
0.3790828614062101
0.37430366140006666
0.3863928074789328
0.3773107915370296
0.4061192971171435
0.4081769681253327
0.41207529738343807
0.4062060176736549
0.4457078363659782
0.4251572378568914
0.43458589382570717
0.44445498885413076
0.45511592013889757
0.4612151662021612
0.45778957738770043
0.47167744978975473
0.4512834886376855
0.4912602528662557
0.4719565248604952
0.47493944576335434
0.4346643777914874
0.4694054158133329
0.4632814000805979
0.45849823052594685
0.4380300356955842
0.4666058256235669
0.4488578173607708
0.4486913370831941
0.4202038697767215
0.44838267297013046
0.4460693316751952
0.44013731647100285
0.40056003001407625
0.43507531907408736
0.44349496554222656
0.41548566358532657
0.4516814819634301
0.4708222529770937
0.5036642948650306
0.48959131109937565
0.5194093595975643
0.5582529185022731
0.6267932499699962
0.60878284844245
0.5882034910868927
0.5884158022874817
0.5927099038508665
0.5804356895857452
0.57953677265274
0.5289910230422742
0.47203791444115534
0.49245771723560167
0.4645949277877647
0.4708075068233016
0.4486552361532777
0.47712337662302406
0.4601742610029255
0.417001737339861
0.3390519378060282
0.39963571316243496
0.6600880088883249
0.9647365139831962
1.0
1.0
1.0
1.0
1.0
0.5783703555781486
0.46306505765427175
0.5738301755062163
0.5520299603979556
0.4934545116630826
0.4348474614376238
0.44710075814304984
0.43697942677235346
0.485928466742308
0.468727880516907
0.46477312564833795
0.4471133776372908
0.49634554354890587
0.4858058411027396
0.485049616233528
0.4825524144608013
0.4997094276677849
0.5100425159319211
0.5030758981347168
0.5222178418280523
0.5175712584274511
0.5497458554863618
0.512054943248802
0.5292429270286327
0.5369655798306703
0.5750703020170086
0.5430085033108355
0.5475143374510709
0.5556903940199434
0.5734818543821455
0.5670198005259042
0.5529029694737639
0.5571510060478782
0.5591288661162277
0.566410642417831
0.5307318457444166
0.5406428430249827
0.5407334341244333
0.5603222400158699
0.5279529928021721
0.5371041269563881
0.5362557904504774
0.54283483726901
0.5212159709016585
0.5352131831889875
0.5211934841754586
0.5400247281861988
0.5116216188857772
0.5104705512832697
0.5052118971058059
0.5439870722357167
0.5220230516477002
0.5340735186700512
0.5331705996961241
0.559223729206833
0.5632741617453192
0.5470887813405214
0.5540309895092272
0.5766300077953643
0.5949844769270175
0.5859324101861006
0.5995521466240313
0.6468430249241021
0.7054469469218303
0.7070262735612006
0.715009310190706
0.7202089736309941
0.7015691426312947
0.6717653242666256
0.6850437790129679
0.6206094934581151
0.6037447619987454
0.5634952258062795
0.5637552346524529
0.5390998720993061
0.5656316950829672
0.5505998715066428
0.5466984530169768
0.4830589921686167
0.44649445897840484
0.5290261341512654
0.864808232416248
1.0
1.0
1.0
1.0
1.0
0.9346276012497142
0.5174109293376764
0.5660645301612034
0.605756933971462
0.5368292474683931
0.4951776155181493
0.5102927442224804
0.4995677280486507
0.5246156355989745
0.5326622193546511
0.5238125969490757
0.5194409393661645
0.5200938563372483
0.5472734881073549
0.5254553164814546
0.5351232991008049
0.5274541141500122
0.5801888218972477
0.5534611527987796
0.5718266356233993
0.5632108959620014
0.5955157292016204
0.5824565453126521
0.5944115758185334
0.5757346642137937
0.6066142338724277
0.6106197337535024
0.6015694626025064
0.5953387703679379
0.6101597080032419
0.6108526423276823
0.594899667520743
0.5897020244340713
0.5668461212967908
0.604491540972261
0.566847652122326
0.5766114148074564
0.5655004177388816
0.5918530413824348
0.5743886234014628
0.5707278453562353
0.5623732457274563
0.5736910062391205
0.5621750400141416
0.5377758554694219
0.5413560394107853
0.5383912438001343
0.5406536000589801
0.5033104406734656
0.5200154547183196
0.5205537791019685
0.5360538412164167
0.5129823572100507
0.5329588917799974
0.5456902555913103
0.5591756863032181
0.5408428979942426
0.563618989165579
0.562253395231181
0.609927623050233
0.6099835091901827
0.6452687468504464
0.6810894769997222
0.7084931945636634
0.6840424042540699
0.6664389171930284
0.6463793395542103
0.6536879851529677
0.6396989143362583
0.5631650885734698
0.5498658115861214
0.5270053284922172
0.5348103665845817
0.5008994363537742
0.5123552049358675
0.5160975125667224
0.5139028941289524
0.43857449179311614
0.37191144947984256
0.5154372877424034
0.897865989476457
1.0
1.0
1.0
1.0
1.0
0.8478689450385728
0.4927491611555813
0.5482902743001987
0.5814374642670483
0.48287214241270665
0.47005582132463725
0.46434499672976515
0.4913633040645329
0.46716168543451697
0.48099375170108
0.48926510159009384
0.4922340653994654
0.4845971366879246
0.4715755904198867
0.4996722305656752
0.5004277206909438
0.5063018266629663
0.49939037324841057
0.5292643117205508
0.5366863081013846
0.5401541132834038
0.5408454854049312
0.5632441181987292
0.5518810640187358
0.5745076373202089
0.5514899987623594
0.5621620554289943
0.5695193716221109
0.5749763652437887
0.5620611681695611
0.5734852221439605
0.5822689628010185
0.56130554681543
0.5593017831876141
0.5395622376082205
0.5595224445586402
0.542787165944527
0.5391256265691062
0.5238597641285081
0.5514730222457213
0.5346325712417361
0.5442264195110958
0.5117720099468863
0.5108553360148708
0.5050648657668406
0.5031363917542082
0.4775463609274304
0.4858150910381904
0.48165101122577597
0.4883475386318265
0.46908474199943867
0.4815235347669299
0.4968860616952077
0.5089967823437769
0.4935888577604593
0.5090632994761186
0.5027297765112844
0.5410038997285763
0.5241466263352799
0.5423720189500258
0.5681051598134508
0.6234972916531243
0.6383001520036911
0.6653386442863777
0.6668462587039636
0.6619530279164614
0.6179567027555406
0.6051887631427707
0.60722309561274
0.5655275940322844
0.5159872137954314
0.5017370469246064
0.48709202252141165
0.5106384172569598
0.49315160849991296
0.4946362161078115
0.4562919003063534
0.38522392677816636
0.4488234388007434
0.7762534758580018
1.0
1.0
1.0
1.0
1.0
0.7898617993341726
0.4648269974466953
0.5573890282910725
0.522659203515558
0.46742481600477037
0.4497726269579396
0.45445688506646176
0.44637145219592905
0.46212741088726306
0.4748099942152206
0.47224711615132164
0.4543605243075989
0.4836052533853755
0.4873023576112471
0.49682715454911114
0.47595535677438805
0.4888327063762289
0.5096267804300703
0.5158874664476379
0.5117994512388783
0.5221719129650231
0.5292057027876678
0.5449495958528
0.5420770624860449
0.5459688762252978
0.5649071909363398
0.571009449204859
0.5645278657475876
0.5577118453313518
0.5681394250404784
0.570170206655269
0.5554294499730903
0.5445967081134626
0.5517471312158022
0.5495195256044504
0.5328770687301223
0.5316811681476084
0.5333393878318428
0.5383979528561983
0.5316388781195601
0.5107498171330802
0.5206392124079722
0.5200717314676784
0.5139716607465765
0.4720353650652502
0.4928382668955602
0.46983108994685613
0.5015356170312577
0.4642028280821825
0.4808005707199497
0.487298179809364
0.5037350281913254
0.4917843060220948
0.49873401078381824
0.5109433185748017
0.5169334750257433
0.523076729151157
0.5267400852345563
0.5563969283419327
0.5674484434758943
0.594995468878835
0.6040885210502516
0.6644938751280489
0.6733327052299888
0.6620937165704572
0.6386912867310266
0.6286034659099626
0.6217127580606459
0.6043949210340819
0.5646003875262949
0.5133569625605127
0.5423552585961386
0.5122550916973702
0.5199910044340557
0.482252860659205
0.5083649169562268
0.5042616621667401
0.4695394915122253
0.35731215477163947
0.42421939862977337
0.6828368836180566
0.9985977012526973
1.0
1.0
1.0
1.0
1.0
0.5741557993699998
0.5619453255748654
0.6033464376026936
0.5657166538343802
0.47773431312845716
0.4883989025262577
0.4717387133993475
0.4645066321943677
0.47440658229935195
0.4970470041546252
0.4906915577175611
0.4791631611500861
0.5066350281375045
0.49792129757888004
0.5152688259381949
0.4936302413113872
0.5055181900943451
0.500258085916711
0.5325964448529094
0.5219080056344095
0.5254176683387486
0.5466690771615172
0.5641655279393794
0.5557107281760569
0.5422383357790482
0.5656563687409347
0.5575926596851488
0.5791790836364386
0.5586869488369731
0.6007926571770774
0.5885709466161169
0.6007784673552893
0.5749179718897499
0.5814082000743392
0.587374662392113
0.5790367929869709
0.5580445207005489
0.5598364946887916
0.585295622785958
0.5788179797019397
0.5602244554904813
0.5478799490458555
0.5518437393442672
0.5591494723739131
0.5696756721390751
0.5339153726013102
0.5267932244993839
0.516711172176837
0.5112129772059844
0.5041324788474975
0.5054601685745007
0.5057201447760533
0.5231953763349033
0.5031091399563594
0.5255154510239967
0.5430510319899717
0.5681488151563836
0.5354710361664194
0.5673024931952451
0.5672458336273044
0.6002478665309664
0.6066829944862349
0.6502791829690729
0.6832646248215041
0.7153245491214728
0.6889704821742922
0.6870807522099353
0.6793917242093765
0.6913351706884512
0.6505420876853668
0.5935084832815375
0.57702788021397
0.5843034265078234
0.5456239626303866
0.5377775997850425
0.5546701263253218
0.5490561803946785
0.5090358990047055
0.4079668276510865
0.44448965971940063
0.7515454819302156
1.0
1.0
1.0
1.0
1.0
1.0
0.6630543423966517
0.5911992403094546
0.6794128754748862
0.5862331530039145
0.514632384675541
0.5097273158849466
0.5466927472719434
0.5182521292093963
0.5004195126653428
0.5294727245369306
0.5595866332743467
0.5427896594170418
0.5283130808076559
0.5282971842927539
0.5439119820949493
0.5497129483113659
0.5295812691256305
0.5584686447045502
0.5652676944571083
0.5766598447992904
0.5422508337398195
0.5833014991763295
0.5848483421346107
0.6158750519318545
0.588814782596822
0.6027027400635636
0.6115333036529531
0.6360608528929371
0.6163486045518827
0.6163502970442921
0.6211768821826447
0.6518035884293882
0.6242344501797356
0.6116306416328782
0.6312069983838551
0.613191353121298
0.6186883729635564
0.6078286600028097
0.6302002692244122
0.6213394347943237
0.6252898080817141
0.5932354136094368
0.6124272962644349
0.6017349135021088
0.6176639411813287
0.5792930800097558
0.5873587022940194
0.5750748786401487
0.5726404458155877
0.5507938539552184
0.5657123767652827
0.5792549451751382
0.5879494181148888
0.5791168394891267
0.5724564523881805
0.5960786560334368
0.6080115765606817
0.6274549419161681
0.6253021652079211
0.6519973517587856
0.6569168324425482
0.6847409697079156
0.7042537538103691
0.7594826847513693
0.7534851209513762
0.7665113761729352
0.7220332855994542
0.7260883164516134
0.7219945777578525
0.7146838901975181
0.6531786839028798
0.6379716352314379
0.6271051230717402
0.6193535888660926
0.6022482617571354
0.5812045364639775
0.6029740063037015
0.5915703646731982
0.5574154616436026
0.46070953092586314
0.5729214228102115
0.9094480951285313
1.0
1.0
1.0
1.0
1.0
0.9845567373179526
0.5964723358200341
0.6657236691774627
0.7022498048447539
0.5931427273972278
0.552547593799382
0.5686083802840758
0.5767178120437382
0.5718937256155154
0.5745995098332088
0.595236604661154
0.5895845988519837
0.5791831928360311
0.5647517745587808
0.5997803099249156
0.5913315635778845
0.5975132941459141
0.5801104808456667
0.6073280496624313
0.6130929562520507
0.6225588724501472
0.6085982887506993
0.6404162921221007
0.6417024241633931
0.6435774787149688
0.6333729159472837
0.6506212137553333
0.6624001115996838
0.6634465833458864
0.6546308616716328
0.6557009403001434
0.6556451406241407
0.6531680595126952
0.6296587822288144
0.6343944854467745
0.6387201093704821
0.6517818753286022
0.6206512107494281
0.6208471332535935
0.6188283815011503
0.6383931496841789
0.6130579102483528
0.6106822483608176
0.5977587270844779
0.6002537399797341
0.5807997573463768
0.5599825326304345
0.5720793419455728
0.5649874096856694
0.5788572646135945
0.5492736594080643
0.5663195137475531
0.5776690807346048
0.5931432932301669
0.5596508031468934
0.5803728092823666
0.5865461625692355
0.6005225002047474
0.5886370492548748
0.6168255192024562
0.6234718754711467
0.6583381591356472
0.6732746516472404
0.7019883480263553
0.7201284691163339
0.7256297503508622
0.7130895178001687
0.6826923937091502
0.6744353470445926
0.6780018622498087
0.6208613413417814
0.582552520371173
0.5820398722429673
0.5842639014373922
0.5723151632820066
0.5584244542403491
0.5677491435118953
0.5604565281544014
0.5212790758190393
0.44176609259719546
0.5979805959914766
0.927939473110561
1.0
1.0
1.0
1.0
1.0
0.8043615965275214
0.5466728138517383
0.6225117802500888
0.6411664296135515
0.5391547924000234
0.5116587019785604
0.5133425367151256
0.5298607582232109
0.5298520702496606
0.5236618808159113
0.5372369240747845
0.5412317975832664
0.540940871369999
0.5224029441861303
0.5467787177705075
0.552220467526062
0.5633398989112341
0.5356973652136785
0.5601321689174489
0.5707769977611509
0.5897311037834623
0.5674850366676122
0.5855081040259225
0.5870276142751225
0.6057138314473945
0.6064665154600896
0.5839865459938868
0.6078632357705352
0.6171886394775676
0.6099699110207065
0.6009098003801456
0.6225795164741553
0.6119035005004062
0.614904154258608
0.5803960713952923
0.6012406083776082
0.5923853824745379
0.5863235703302363
0.5741973101403093
0.5827669760355254
0.5801571128693335
0.5879929713594808
0.569584207121847
0.5666442910567169
0.5672469956324873
0.566622701753958
0.5393444155062601
0.5141132558796246
0.5347617826879363
0.5256991186034217
0.5352836221361885
0.5163858388115592
0.5332850734291508
0.5317210841234592
0.5444157652172363
0.517470295085588
0.5451097109440484
0.5447285733951828
0.5541048492388512
0.5469600190146198
0.5621231795887592
0.5967722955295295
0.598334482941904
0.630254192413792
0.6370041510592813
0.6955605966921726
0.6961137543768351
0.7003291364180816
0.6737679053225367
0.6611941565130913
0.6511850811466033
0.6247242969292046
0.5682676762781352
0.5804623369061984
0.5468348848816664
0.5370485832846195
0.5255013477176848
0.5379446951267808
0.5555262978732731
0.523783036636254
0.4873815606433533
0.41023749144301247
0.48682859310392484
0.735472550089171
1.0
1.0
1.0
1.0
1.0
1.0
0.6420034491293245
0.5651938532508423
0.613370005216581
0.5835694822999216
0.4924686533422105
0.5012259271683142
0.47512810813449063
0.5008365425151707
0.48681566197502735
0.5187995242165807
0.496156329004963
0.4888484806214627
0.5096785768384307
0.5163682347869427
0.5213892375271627
0.5029835877558624
0.5300770191786317
0.5360642893429592
0.5543203603561633
0.5246159189471881
0.5471177945462357
0.5441583991511492
0.5574779481842848
0.5467394697444401
0.5587190633582487
0.5817368743768346
0.5798634772652412
0.5788276408417979
0.5749446245856872
0.59721961456997
0.594648130937337
0.5894237813214026
0.5754197038660818
0.5784653800644618
0.5782393442482361
0.5812802837492037
0.540144799167255
0.5752664082197254
0.5674910192759007
0.572958015134972
0.5467589640191327
0.5685232077837801
0.5589528504022672
0.5647992341768149
0.5363906514801753
0.5383999811746494
0.538004349678076
0.5155518148234071
0.4962839727282315
0.500955165282053
0.5177730602563232
0.507583135157813
0.5024442437411579
0.5052551168932442
0.5315982991582489
0.5270331146719258
0.5173130009258083
0.5249600557060364
0.533206444974492
0.5613435863778587
0.5700786774007072
0.565413812131693
0.6080134118063573
0.6362995900439551
0.6682442115774131
0.6668653277036741
0.6626189794984567
0.648893888522788
0.6546004589401978
0.6101839382983367
0.6197412598814541
0.568681569673905
0.5556571922747063
0.5183485786587906
0.5153041983725752
0.5213530922989155
0.508889253539947
0.5038144447667292
0.4958446035207126
0.459295856620422
0.39032664152789515
0.5119467737945771
0.8672268256697327
1.0
1.0
1.0
1.0
1.0
0.7110848863720093
0.5087642427750888
0.5740846737518895
0.5635100542097117
0.48573747185127136
0.4727066101165425
0.4536071396276712
0.4737589735771709
0.47723306147786015
0.49284549899862357
0.4650872758127558
0.4746843864868868
0.4900708000366457
0.5044294549923856
0.47436417746204923
0.4931343799018849
0.5053244010316258
0.5102039525367705
0.5018623074562696
0.507005010554243
0.5118355965087087
0.5431839391180986
0.5234863145180888
0.5339068405974569
0.5328749825297909
0.5546343215718005
0.5503028433681737
0.5450663787254627
0.5491549459311107
0.5620911565332886
0.5646398229939473
0.5350962056610411
0.5519932326254203
0.5435576800967599
0.551750598287338
0.5205753510108588
0.5356924418785068
0.5284298661878953
0.5389297507533838
0.5144727387390644
0.5168418697509749
0.5255132434002532
0.5212710967796346
0.5105402832558835
0.48083959549822036
0.4788032127518488
0.49351502080986487
0.47512732793968837
0.45410657546108757
0.4812702768536199
0.46420789810806806
0.4815433190470174
0.4669789350247207
0.4855523877641364
0.4816189680159475
0.5046490592658281
0.48298762812954965
0.4904137500234508
0.5006998833275141
0.5222858090365539
0.5194661842839357
0.528675548813427
0.5700606820988536
0.6247586644330619
0.627746493995597
0.6272643356819892
0.6316309630165007
0.6237125142541321
0.5982576405244533
0.5758576738768031
0.5430069771384279
0.5256078156134522
0.491997315570358
0.4777822304020001
0.473370489592747
0.48089903465057127
0.4818897668143368
0.4701929702470989
0.44366673204173424
0.36886439127291815
0.3954464112053814
0.5847518345900095
0.9501800572408422
1.0
1.0
1.0
1.0
1.0
0.5884702131351914
0.49639298255157466
0.5660227849640437
0.5067641618476915
0.44770041017804313
0.4348811787128907
0.4334585758769
0.4447896899606306
0.46876690994007275
0.4520424714984991
0.45518399960839606
0.4567015077446722
0.47679209103676506
0.46411244188272055
0.450139650589971
0.4578941158001486
0.47696801628533836
0.4912444231623687
0.4743566756896886
0.4872241541480914
0.48714581095675513
0.5121685618132746
0.5007798656079501
0.5183420134730969
0.5173491075147323
0.5297767671317253
0.4967815102829075
0.5211097030250559
0.5289638648386099
0.555572816803817
0.5219129325185334
0.5361438339296493
0.5165892892840894
0.5494652125960506
0.5118080611718389
0.5137921335576108
0.5168135246185651
0.5384384703660398
0.5166669129578962
0.5141666745800275
0.5092624152336443
0.5281268116038274
0.5092080264573281
0.5039282281586157
0.4934672580998253
0.4839764152699219
0.48528145847301446
0.4696132740033521
0.45408547990575465
0.46998297146380025
0.48325126921212985
0.47265405703361046
0.471768037878897
0.4871428133869089
0.5017529671456278
0.48167408188508354
0.47494403175192196
0.503919351896679
0.5410877733371997
0.5288317629821926
0.5421557080375701
0.5880286479006205
0.6418412452144405
0.6386059441671565
0.6425487721655555
0.6401655137156466
0.6393241774292543
0.6131673965240706
0.6136337828589153
0.5471049010219149
0.538352398625505
0.5214690813517283
0.5056475843004483
0.4848718847073325
0.505968141306305
0.4963034736203925
0.48237220710413825
0.4370914088308518
0.3670464843575556
0.42753048653609077
0.7232712229089565
1.0
1.0
1.0
1.0
1.0
0.8358728606185863
0.5489061056722866
0.5941943924692195
0.6201729518003449
0.49676512793935146
0.48724754190551856
0.4636188981482995
0.47399652525892205
0.4640091682985229
0.48974417650223573
0.4926854164872746
0.4723448923736079
0.47934920481577026
0.4982771608930515
0.5010606738951388
0.4766036924509245
0.4907778597955044
0.49341057863503285
0.5175644595216469
0.5021560174544267
0.5056928091154945
0.5106621755664312
0.546425702986636
0.5256357620327015
0.5342211067709106
0.5343699951038119
0.5744199578662337
0.5479645186985477
0.5589402948292572
0.5546322830934534
0.5840149872293723
0.5808173544448867
0.565879339459753
0.567239633637199
0.577064761380793
0.5868573752242867
0.5559296253384438
0.5615239015784057
0.5564066169990671
0.5756031538047354
0.5426704982718716
0.5602760947020776
0.548110329434514
0.5700635066355717
0.5287296586048212
0.5292318035108481
0.5223309538101798
0.5329450690701976
0.5136099084199051
0.5045495766030312
0.5014468571249908
0.5120158206133185
0.5275240399337877
0.4985691966225939
0.5261864303481265
0.5247621903736867
0.54803650981911
0.5117385364065854
0.532500292644143
0.5547406782985476
0.5553601848913885
0.5726630227131709
0.5623238731969916
0.6346188019329921
0.6687515556725644
0.7020793892657571
0.6772793525886279
0.7042928982557577
0.6900908636632632
0.6612781576075866
0.6479865049834016
0.6281173682660649
0.5976871043448231
0.5370148435776863
0.536895023528285
0.5085123706788494
0.5429377317344158
0.498186804022971
0.5101429529994851
0.49886113673325133
0.47775643511642957
0.39393499758130446
0.3797768410735919
0.6647830036917161
1.0
1.0
1.0
1.0
1.0
1.0
0.7087145191085464
0.5416151412176798
0.6301803026817048
0.6114433189896167
0.49424714752744175
0.45911990984434486
0.45917724002487337
0.4834028778898111
0.4716803201103937
0.47247494683412167
0.46596455151930777
0.48892327082739173
0.47827017593271715
0.4709735287900697
0.4969440208344812
0.5033910363188696
0.5123344411394514
0.4871376336272634
0.5107566151071234
0.509584684711727
0.5500509255141595
0.5173965734473212
0.5301245785703161
0.5480163224215009
0.5579924255210609
0.5466462497986931
0.5221032734378077
0.5672234571141654
0.5561550308657736
0.5789210744869908
0.5467390755985015
0.5742134051311996
0.5791509798457126
0.5734673300275637
0.5501950792345734
0.5721076181382169
0.5637506332294695
0.5744861256062516
0.5370646002146985
0.5490197789377997
0.5619899378913323
0.5610503753464908
0.5348617121821981
0.5182913042373873
0.5193632985292547
0.5324254343047005
0.49840933787400443
0.48712488299475226
0.4833647006523741
0.4863902320602259
0.47848668903190517
0.46362096213214166
0.49134622906987213
0.4905577167818163
0.49846052826826365
0.4762468841423573
0.506860747738852
0.5115241603618034
0.5204596361672449
0.5337703180434985
0.5596077717546464
0.5967469051440447
0.6529791784845156
0.6590745010459498
0.6805917027133997
0.6815573947884266
0.7020175280247571
0.6430320885487917
0.6436463866762427
0.6239674964042561
0.6086372673098924
0.5326942145025675
0.5141827678035057
0.4948357666761261
0.5112029980666816
0.4796757651725039
0.48493118321529244
0.4857949360748178
0.4554957040447703
0.3628129642728786
0.34050273356485083
0.6661006369833029
1.0
1.0
1.0
1.0
1.0
0.8483228289618177
0.4917697962426133
0.6013137221443552
0.5788034279677748
0.4811232815192163
0.4344774497658917
0.4441721024632598
0.44559623250296204
0.47886186858251706
0.44710461481492303
0.4547464017533732
0.4397579228375488
0.47883915406668826
0.4373021841383594
0.4577754045814449
0.4690763800380098
0.49890364433603535
0.48047098127330423
0.45782462436607024
0.48297281178658535
0.4988619087192908
0.49769900575315573
0.48834684607657614
0.5066999343323366
0.522549216952484
0.5370422870813731
0.5194289976367085
0.526614096045229
0.5571759861582958
0.5769701518260628
0.539764880037764
0.5539550373563032
0.5447929936878755
0.5666096799128842
0.5274281450869147
0.5299330633834267
0.5268264746963834
0.5476105291086697
0.5006057304082858
0.5075133970461188
0.5157425075705707
0.5303115379342012
0.5158602494509694
0.48845766042751526
0.487948238545952
0.4917895881806979
0.46735230800539396
0.4407640665772436
0.4445995722645827
0.4521331059216781
0.4467794623214124
0.43623559380817234
0.44465196043856575
0.4609682316566513
0.46367588243161606
0.4556648189736737
0.46878396396878114
0.4897291776980849
0.5364675443617934
0.5139419489767192
0.5364416890512833
0.5555504599454983
0.6357430125862883
0.653392388561217
0.6902947659798366
0.6566133693959985
0.7006132360509385
0.6437574212747252
0.6330886323445619
0.6128309186035171
0.5755153156413519
0.5048351056538435
0.4706435328437294
0.46106763562719194
0.47040247620842857
0.4670788351887765
0.4574740525196712
0.447510444638853
0.38636261842208425
0.3128942777776302
0.4258182704434573
0.8622540857090721
1.0
1.0
1.0
1.0
1.0
1.0
0.5355093406979081
0.5696929772089203
0.5912390453518679
0.5030602045034939
0.4204368039007841
0.389196796311101
0.415911309332236
0.427562686671055
0.44406099288303
0.4126642786734154
0.4268714482860131
0.4505956638085998
0.46056454268865865
0.43428255135286803
0.45764738233162944
0.4475073964149148
0.47356089512572674
0.4518398653799508
0.4722485904514401
0.476310476796609
0.5123513483777875
0.5099818740248854
0.5173392250917292
0.5131771614022009
0.5549463615805988
0.5453598863623872
0.5467558439700632
0.5451191945729014
0.5794434142073549
0.5476838894230424
0.5408354327461111
0.5525885096863172
0.556191330903635
0.5468511641697131
0.5396594094626115
0.5232438664543086
0.5353833725388041
0.5300254689239721
0.5214937317255375
0.4971422710971923
0.5268356853478047
0.5095914852412118
0.49210530400220326
0.46101136887651395
0.4788725101934128
0.4753241988505554
0.45323723745354705
0.4291842806304661
0.44423442282704945
0.46142966243222955
0.4452197586051467
0.4534687433282046
0.4542773090964999
0.49830880138582423
0.46212721135085133
0.47507374680834624
0.48253809304728046
0.5357942908637435
0.5275230252005262
0.5508177988366169
0.581606017286286
0.6643069092068904
0.7001883218655907
0.6942762857989566
0.6644429816653369
0.6701504160527489
0.6479380156645169
0.6228823315119432
0.5309629679661783
0.5220724783875734
0.4976873593481598
0.4897099449237774
0.4538227260223793
0.4879295920780623
0.47681514854017426
0.4752365938773491
0.348481621134837
0.3202267646512776
0.5573037616592018
1.0
1.0
1.0
1.0
1.0
1.0
0.6557147658708203
0.5199826869619704
0.6070893079803508
0.48534912912724487
0.40949044263697676
0.39352584498685883
0.42991748408871294
0.4115439554159597
0.43066010249342457
0.4397827009344315
0.4574991213236467
0.4477325804164024
0.4464310157983181
0.45367630512650764
0.47518740734214093
0.46979275607970833
0.4553301663501793
0.4838229594837002
0.49172277825408317
0.5031530489677735
0.4826095489919526
0.516181163014518
0.5165982100996891
0.554993459158252
0.5160959163103327
0.5374042458483899
0.5480368934953037
0.5733581005567927
0.5542322034982169
0.5595576534488966
0.5618433221759972
0.5868745315813114
0.5509745140601024
0.5584776922756334
0.557361625402929
0.5702815411064129
0.5620490791557955
0.5441831587500091
0.5485511586170401
0.5576682370233376
0.5581066893961282
0.5157469594543026
0.5367376925959604
0.5205045059159218
0.5271677095526031
0.4813129320663001
0.49497932702276
0.47084278083703135
0.47944181284140264
0.4567700478959623
0.4518469104993117
0.47491063712609627
0.47488008732864706
0.4838979933306423
0.47677816121053385
0.5045484164045457
0.514035920655928
0.5311892834268933
0.5148311320466855
0.5718163551094059
0.5677987139276998
0.5908261035262852
0.6276286030850036
0.6897323642410264
0.7104672277897122
0.7239204239007824
0.7065979113553379
0.6855674921517438
0.6852162975483334
0.6479199769009019
0.5893950272900381
0.5336228675604564
0.5374306524587956
0.5051161905717303
0.49151142076375914
0.45923022740085767
0.5098555554871743
0.4872490111067627
0.447902126393938
0.3147338880778193
0.40091377885023755
0.7745322966866699
1.0
1.0
1.0
1.0
1.0
1.0
0.6949836189785662
0.5764596387764185
0.6510342874464616
0.5910036193161569
0.4452035025467729
0.467752317853361
0.434466029947434
0.4525055207225204
0.4467022375977955
0.4818493688340264
0.4748781463520782
0.45223805414250745
0.4593624724609088
0.47193580234223936
0.484208159781486
0.4626129810019819
0.47234458570964677
0.49508930663653017
0.5257894929420148
0.4939911045786317
0.5070845373440352
0.5000134125124596
0.5552808714895442
0.5339541323154726
0.5559386082149815
0.5687186473417098
0.5952552917438688
0.5632263246987788
0.5896580552434616
0.5909626620602781
0.6246031437186437
0.6161706615171483
0.5891595281841473
0.5878400557959038
0.6131447543192786
0.5855231136352099
0.5788546682123872
0.5748707725431443
0.5730279573782031
0.5578073113117035
0.5503726600969162
0.5494307904818556
0.5580419411140716
0.5668649540160309
0.5438653293762031
0.5003568755536694
0.5165698905529967
0.5188451475003657
0.4682221501421786
0.4738477033464436
0.5024963434819922
0.5228041327167475
0.5249686905802997
0.516219303648865
0.5224190673013711
0.5618360169574415
0.5396527785138122
0.5750496237411684
0.5727799209577518
0.624126156826381
0.6368152547324545
0.6912082850756617
0.7276916431125692
0.7879991311240909
0.78155615421862
0.7730414459735737
0.7393302202930916
0.7435270275928737
0.7189245216776741
0.6570872724173238
0.5777849929379194
0.5912660335401638
0.5446319911956349
0.5504385694075418
0.5292264488839772
0.5605327051264233
0.5571885569310192
0.5040595908295843
0.3797184826652825
0.47317211724694774
0.9292575514900772
1.0
1.0
1.0
1.0
1.0
1.0
0.6855864007984432
0.7247737982942116
0.7229872657476382
0.5780822943835464
0.49051267891023465
0.5224731601030219
0.5275864497851247
0.5241277844182688
0.4987600836114482
0.5644835264822474
0.5334797570912109
0.5467854883683643
0.5107882432986572
0.5351935875660458
0.541995450968684
0.5569166536608084
0.5490271724422364
0.5666888937351968
0.5801172227904468
0.5895744961381573
0.5909532048056474
0.5975728458256551
0.623199663644096
0.6413052011287892
0.6326438500362612
0.6323701949785451
0.6827119360929137
0.6654323889563994
0.6840974961213072
0.6648194353012342
0.7005944842763121
0.690511766856461
0.6824483014866753
0.6611684033146819
0.6989763545155887
0.6737412681601693
0.6889465766299805
0.646236226753263
0.6714276438739855
0.6753333072981604
0.6783504661250424
0.6345552320919694
0.6459577687943515
0.6553019945663418
0.6404371774462023
0.6133674766061505
0.5902006168272493
0.612934653450296
0.6087508539363983
0.5891432717468266
0.5834735634102404
0.6262281644726958
0.6215153740115944
0.6160476648146507
0.5941731035262849
0.638731492743656
0.65421145768322
0.6848583325374786
0.6631142854178222
0.7173760831555445
0.7688195596344173
0.8320053068927799
0.8211757057966466
0.8475814731493143
0.859963745624869
0.8412649806444563
0.7742608154091999
0.7851839423623592
0.750917197494255
0.6973056076916858
0.668328579028879
0.6329962864605365
0.6255156545544064
0.6332999319912151
0.6202273536160167
0.6033883190378602
0.5910765204063173
0.4751784569237031
0.4853072870325514
0.8106644846215467
1.0
1.0
1.0
1.0
1.0
1.0
0.714798067615271
0.697820580855579
0.7642729520415923
0.6461993472288521
0.5785234902968204
0.545729803092512
0.563369961604683
0.5671892413764464
0.5895975940284861
0.5681731564900175
0.5619277850079284
0.5747399582217945
0.5844417139544646
0.5799316677980938
0.5805673715805378
0.6141392621881593
0.6081822441976297
0.5987137451800082
0.6063199751323831
0.6304731575636877
0.6375805678305453
0.641810744839165
0.6319790902625562
0.6532691929912691
0.6648721822685062
0.6840843227953333
0.6520075463541295
0.6819799211192759
0.6748700185297893
0.6931740763283056
0.6634657077913942
0.69180875209902
0.6726769795827101
0.6784198192703993
0.6518154426978239
0.6620831964381713
0.65830190528029
0.6702630300750372
0.6489432548402361
0.6362229780592543
0.6711163182898121
0.6541148230815834
0.6416067850415899
0.6063624014253217
0.6182933238758979
0.6012384626872717
0.6108531273480733
0.5614265115800998
0.5862446303508468
0.5672227176604739
0.6004289562944156
0.5870808254387958
0.5975578192315465
0.6130035025519123
0.6285297743993368
0.6130612401849376
0.6216888196170498
0.6491855579668672
0.6368837015073289
0.6661848265271721
0.6507475370908564
0.7099549419378294
0.7617444264219261
0.798682939065913
0.7915999957369668
0.8337823212629338
0.8038106374902416
0.7815746978514326
0.7346749100426319
0.7189209941798003
0.6739758093457531
0.6453027777810318
0.5936655542785116
0.6111067820397074
0.5981862898561761
0.6108509504932629
0.5806999103681468
0.5766873517286439
0.5113956879232189
0.4384307564797358
0.6063732070913629
1.0
1.0
1.0
1.0
1.0
1.0
1.0
0.6378229335906435
0.6619670167808395
0.7051931612009898
0.6090333543439279
0.5351580938740912
0.5404855412686919
0.5359200247282655
0.5518613832707404
0.542977771444057
0.5455878610988236
0.5334629583230798
0.5675494767948707
0.5477159097500529
0.5541781428356075
0.5250971535910305
0.5621058519405233
0.5580091782017048
0.5642801951755936
0.5511029276628527
0.5837440380182584
0.5956688829978563
0.5911139558783497
0.6006864631502153
0.6101646810845051
0.630002925803345
0.6175598041359726
0.614139385845218
0.6236235225535153
0.6561351689980894
0.6177539279563431
0.6377158096781832
0.635259849963689
0.6590554274623295
0.6358502428655364
0.6239859243551399
0.6127773443409618
0.6402539285147351
0.6156147815294218
0.6106246991376044
0.5872845782862995
0.6146171982991414
0.5900924894498579
0.5770909287687539
0.5560444227465318
0.567736310599714
0.5633637270605555
0.5212341736677073
0.5246579383186363
0.516526006294044
0.52590381666542
0.5055953425203673
0.5193490572050234
0.5200988226391094
0.5646488324403134
0.5321815141660109
0.5368996149243217
0.5495194052242446
0.5804862868578733
0.5652633988559879
0.5782870182992144
0.5984882572989453
0.6511017068095274
0.6913181816908508
0.7176171758965932
0.7364974119187642
0.7238824632730416
0.7360451307495748
0.6819916901538985
0.6724788655473812
0.645256753785743
0.6123164180153088
0.5390974226093505
0.5317373182538145
0.527142966698224
0.5282347861385261
0.5134707785608812
0.5117145671969622
0.5120306067975243
0.471836740229535
0.3902243790035369
0.35528174990508266
0.6469553773281609
1.0
1.0
1.0
1.0
1.0
1.0
0.6039625123428214
0.5726781891695032
0.653535547189328
0.5756235162807845
0.47332264329803947
0.4561696475789828
0.46727218701823847
0.47607056159660044
0.47033361536804213
0.4402314584525828
0.4837858744765812
0.47322070875873923
0.46830398385556105
0.45759691369817845
0.5029895400434253
0.49116322340643953
0.5077384395321367
0.4813839741953623
0.5159919429405802
0.5259774676444342
0.519292073935143
0.5135450105207593
0.5302942579112384
0.5510966531191582
0.5559973450875899
0.5260726675016728
0.5495670381014799
0.5674001466882482
0.5780034943490074
0.5723554050414832
0.5605552144887872
0.5818891694616795
0.5717284611625113
0.556514100785736
0.5117841174865533
0.5505364841201491
0.5324331129166462
0.5369848934295723
0.5152608797643674
0.5431647596990216
0.522373626276486
0.5235005100877155
0.4781023228010213
0.4971896197278854
0.512782480636188
0.4859657308570612
0.4614196489301339
0.4614752070127758
0.45718240664376275
0.4461914949793564
0.43347244937402063
0.45919294785556064
0.4753973159353572
0.4853440756767998
0.4650625433043872
0.4646889711325836
0.502141650360502
0.5002190489469693
0.5218634485715113
0.50734698251378
0.5551349971699188
0.588405976993218
0.6619436265813433
0.6671717231858514
0.7036731274592049
0.6897633457432824
0.7086281233976648
0.624980632633774
0.6313058483580777
0.6075482599891456
0.5536553385801486
0.486035796631215
0.4826660554353509
0.4775779094348713
0.4634373033111502
0.4463698016525065
0.4366013888303074
0.4030544920811435
0.3023337574288839
0.2920673992325074
0.6498451839423518
1.0
1.0
1.0
1.0
1.0
1.0
0.6799644056233338
0.5288175428919483
0.6384380240167078
0.5310412484864184
0.4370964722096417
0.3712432551087484
0.4081549811740855
0.40531228678491066
0.41008821195433054
0.3906205532382621
0.4036458720258211
0.42917546092982856
0.4437686715915656
0.4125669239576183
0.440502912888055
0.4452399172108953
0.4573242239652425
0.4321724691470726
0.4471916591382624
0.4646508355559109
0.47817986398061746
0.4718066082348916
0.4562070479400563
0.5023631876826755
0.5067079794286522
0.5120315455721471
0.48389918979386526
0.5229992037113211
0.5232988582727824
0.5574471795800687
0.5089347035225421
0.5469890739444477
0.5402450394819361
0.5179370498445801
0.5155915647574973
0.5024214966973479
0.524173297003223
0.5233218426566826
0.5205310574886218
0.4909811762360861
0.5151328671459287
0.5150112496988097
0.5003583159826298
0.4644523463702284
0.4864956142841256
0.4555120385585715
0.460924210137282
0.4139379641107813
0.4456809090593409
0.43613933548452766
0.4468713862536152
0.4272464138958427
0.45104563821443583
0.46280711235747185
0.4799860277328299
0.43188162204017244
0.4702498544520851
0.5063993255550641
0.5362920880213351
0.5111950828204226
0.5693817819522782
0.6340035228540806
0.702643790001867
0.6920811674717037
0.6848315114877356
0.6848284091796989
0.6669967604379731
0.6287398553069989
0.5804250988133357
0.5385579333906104
0.5063863597250424
0.4611235131253757
0.41973970296667173
0.45639712430581236
0.4321177365300688
0.45305685442413274
0.4072562934762787
0.3759928311607668
0.23905120870550584
0.3694714927817347
0.8083102756301164
1.0
1.0
1.0
1.0
1.0
1.0
0.5453387117687405
0.5416764149534388
0.5659787147865878
0.4492414174035023
0.36810427720419125
0.3595776063896542
0.3250128619503335
0.36930848452556075
0.3680089439469831
0.38784269351898826
0.3319369719580704
0.3715184378120081
0.3726761598176799
0.37584429767466276
0.36346600527336786
0.39338081797674845
0.3966088251731331
0.40411592461771384
0.39465279928533015
0.40564127695335384
0.43396968987034856
0.4297377570860137
0.4232409096207895
0.4330388847416101
0.470477191900024
0.46005768212239084
0.45564604193543473
0.45191073836407575
0.48235116609809525
0.47066085818975517
0.4706210136175886
0.4551578316424922
0.48127904073396194
0.4614154107723253
0.46436014599595204
0.42585968738689894
0.45976262770494064
0.44534986696428247
0.45681805437656964
0.419328766506008
0.45365540177064345
0.43124016505172447
0.4343801403713704
0.39524226653388395
0.4017895657300513
0.40027117087853126
0.3866451101314704
0.371606148347906
0.36621622126838904
0.3866699229388832
0.3747597476052846
0.3717403352448903
0.37216550983524443
0.40758075463799426
0.40947939196355315
0.4014094433062924
0.3911112648510843
0.458581769302363
0.45505417978220464
0.4597354593882181
0.461371508985986
0.5560909255184266
0.6040113205748774
0.6439844600225344
0.6081836132913221
0.6258371129713215
0.6188814187740939
0.5779363640749187
0.5461471150384174
0.4653028163989494
0.4545665450717629
0.4174591693118591
0.40453777873337965
0.37103224644331867
0.3984448069424499
0.38652178485504585
0.3760439157217823
0.29360812351117743
0.20241975043080776
0.2744703036050936
0.7390091675034641
1.0
1.0
1.0
1.0
1.0
1.0
0.49017485743718037
0.4701080569690356
0.5258826673504762
0.3939839509676063
0.3369266469097936
0.30078741575783147
0.2996227558043858
0.29347808903901457
0.34892490084472194
0.333614850666866
0.32244232688247865
0.3131643645450561
0.350157529847717
0.35316408341468525
0.3503644118064558
0.3363589448838648
0.3748038887969495
0.3645568659076431
0.37505778335814755
0.3695394790413028
0.4049570926982586
0.40649560329127626
0.4029230208279301
0.3909597053054949
0.411782977646071
0.43758395184060195
0.4210310942358836
0.4236968201130392
0.41159908463089856
0.47142341787787584
0.43041066001548983
0.4470771186833814
0.42712764858573476
0.4473354509815811
0.4217887946812627
0.42563166686322207
0.39838399796127494
0.41050022742203085
0.4196858667035512
0.39672158406986957
0.40432547207392294
0.40422453567501027
0.40841736719603183
0.35706262432088465
0.35558119391196696
0.36211883716481064
0.37761957980782207
0.3213893009582741
0.32235770426983346
0.3249448113224912
0.3700352296858344
0.34116273790850354
0.3574266549118515
0.3545145327581257
0.3886402276795574
0.37758436081232516
0.37280290794088106
0.3857750011109801
0.4179316506857699
0.43568254191233907
0.4102119865275119
0.47004717684751735
0.5124256988455498
0.5839707595963028
0.5713162140438958
0.5867777340922822
0.5892566516041341
0.5645586768367642
0.5224611845409639
0.5042948333806222
0.44362646344847934
0.41392842288906817
0.40192082971773546
0.3442860000602954
0.3691175909018904
0.3567012601920638
0.3629706110845931
0.33277261961069143
0.28943928038712324
0.1861740682665029
0.27450653918790746
0.6094475473371788
1.0
1.0
1.0
1.0
1.0
1.0
0.5376178575333419
0.43855999546630836
0.49063031117216066
0.4219105408823201
0.314172973022871
0.2998255164953264
0.28214188334298873
0.32237026972660054
0.33749499029053587
0.3485664432301922
0.30387507383289625
0.33605466816548973
0.3322115953051267
0.33789338318431955
0.3157952672203579
0.3233643985578542
0.372409250973137
0.34839933166654286
0.3641786200747999
0.33552036901170795
0.3939534303394889
0.37490422547656393
0.3852204312920077
0.37353845639359246
0.4088637428151852
0.40508473854676447
0.3960056884057451
0.4004428285688769
0.39672212777359395
0.44529928913636213
0.4249696290500662
0.4249441809676736
0.42171337229022327
0.427146395434095
0.42503117525528555
0.39863494333256727
0.3915434965417994
0.4332408660357805
0.3957310238049792
0.40078870886584267
0.3827730761211785
0.4207881940147088
0.37879834661977807
0.3825185562007004
0.3368524619805447
0.3810295255578465
0.35252451786064243
0.34589905002808935
0.31915305258000554
0.34846833178260644
0.33854797194544073
0.3367848500188738
0.33269318780494617
0.3445665290660439
0.36343483232866947
0.36355773628250543
0.35405626164909787
0.3709005046331278
0.3905829765262755
0.41890820444023474
0.39324423421894766
0.4257729482872657
0.47843339293116116
0.5084244439106642
0.5437282489382274
0.5569652738201585
0.5582133470984925
0.5314997802784392
0.5179625126743634
0.4834035460339529
0.5106325917039715
0.4112171205273774
0.3846856298348674
0.3507273388049038
0.3696899862145552
0.3508923804466267
0.33403353278150694
0.33953376456164897
0.33884425520734507
0.3130318662216961
0.1863499873007873
0.2759882501712582
0.7194473123634053
1.0
1.0
1.0
1.0
1.0
0.7395790586446027
0.3739354989096129
0.43147607905021257
0.45547695311926883
0.3199886904596741
0.30069105085046927
0.26357027332701205
0.30272356745126994
0.2983635409874876
0.3069696795822948
0.29462573724310226
0.31125469493262725
0.32234050109661333
0.3035045082446258
0.3045420365822447
0.3063172589283596
0.339417538540963
0.31297966465908783
0.30528776229721116
0.30250690947494896
0.31863866626091564
0.3071171498488653
0.32356958835844
0.31934292554624844
0.3739420295427168
0.3529707582580309
0.3553535188891391
0.340327144904255
0.37395789484577985
0.36639391931677495
0.3761759984140845
0.36599672312944304
0.3902453576315593
0.3881127166601918
0.3748204028152634
0.369490614264135
0.389894258679315
0.3809237071948961
0.3604638421155877
0.3618418030736073
0.36493154918914356
0.39447374491689374
0.3655916132287266
0.3425794797635654
0.34320689139416743
0.3452296700942551
0.3297867008869345
0.32126094326058946
0.3027941771756545
0.34417027585827387
0.30667116695536495
0.3178918497836297
0.3202947824398418
0.3478202867914192
0.3382913255502714
0.351033955960654
0.350613966671437
0.3582315261920267
0.3866729289195705
0.3658070729461442
0.39409421935983896
0.3903342585653632
0.4644467003807641
0.4826855412810396
0.5277513710535806
0.5390764817542506
0.55862635043968
0.5371530023416419
0.5064409125755078
0.5049800530316546
0.4858846690026056
0.4123691890518426
0.3918964297182398
0.36780826012517426
0.3939367111913049
0.380856214126713
0.37232798462957495
0.3647286341169673
0.3690320550485492
0.2839330006403888
0.2334487787153202
0.4429413480716735
0.8088557458740107
1.0
1.0
1.0
1.0
1.0
0.8432730414155067
0.46343828039525314
0.49536660420534606
0.5212015823373903
0.4212891576380132
0.3306542250655852
0.33526666696712726
0.3543884882208304
0.3536689488649075
0.34529034513198814
0.35637205170061304
0.36233538530508747
0.3686716342872881
0.35534275787388625
0.36454175640475367
0.362147954323879
0.387603136606122
0.366040646869497
0.3792944105653867
0.3695329689450607
0.4048865489784679
0.3820788408127318
0.3987129038601067
0.3951398563296422
0.42293985872279605
0.40952632263007677
0.40863015649576234
0.4198958485344524
0.42983143728598466
0.4415151867774565
0.4449742480413235
0.45864266522765124
0.44926419175033194
0.4424376893180054
0.4371774888469998
0.43542919823435716
0.44409846298529576
0.4379795105524747
0.4197406577644468
0.4316072929729331
0.4241075588434512
0.425133134219437
0.42320603532759726
0.4307524053535873
0.41626400985936896
0.42280430455339124
0.39217355769946904
0.4076781059625557
0.3969780296849702
0.40165118219350787
0.37447615580347593
0.4041171145216957
0.3943629645280432
0.4137745542987036
0.4119607415045691
0.41988060454752335
0.4285509192953298
0.45623687462016466
0.4574908681866557
0.44782539969040425
0.47482609467668146
0.5444450872525012
0.5561333972503356
0.5927187243331116
0.5830757655040344
0.6076700050846028
0.5644933479955604
0.54839874811601
0.5194293377255188
0.50018688648597
0.4634145450502153
0.44876716908928466
0.42609571302011284
0.42755450810343126
0.42166314171901387
0.42632749943804776
0.39744438298055995
0.3448908048373868
0.2937563639220496
0.468135322664044
0.8732289593511113
1.0
1.0
1.0
1.0
0.8205000356421823
0.46432134669128955
0.5405991908219111
0.5361710167032883
0.4513457862214209
0.3940311544990654
0.4036992605985691
0.37210326176034203
0.38716133375398415
0.3969852523894905
0.3956638940426627
0.39851345644676434
0.3871215373345535
0.4077894318153305
0.41237106085239017
0.41965029692433253
0.39245457874633904
0.41309043290730124
0.40950283912545354
0.42304924673862077
0.4093824386386958
0.42905652810360684
0.43446634290073965
0.44211694568192444
0.4209280659573381
0.44680232566478545
0.4597011362137214
0.4815013060975589
0.4567855340698346
0.4722865302447083
0.4711344387640014
0.4875237218532364
0.47705206645966997
0.477864062301939
0.46929205308434446
0.4728495930853872
0.4610529060261664
0.467152787850715
0.4775992424944822
0.48237446406002393
0.4664969009454592
0.4378299750212017
0.4500325504674557
0.46192767064221724
0.4601779777689635
0.42797052242078043
0.4339887821210394
0.44015925350436963
0.4344376838156771
0.4151446809422433
0.43257525550312836
0.4316976876320237
0.46190614842608746
0.4273857518733317
0.4502161808895101
0.467923576265608
0.46807063453623876
0.45710440293802523
0.4632821969223967
0.4999040968597998
0.4980654292412129
0.5145703013000511
0.5241143868553357
0.5894635481298145
0.6196750904276452
0.6174790923330773
0.5857676414120492
0.6047594117676279
0.5766746541850976
0.5712912702601028
0.524966958377545
0.4969674787142512
0.49137381351901777
0.45775621604379424
0.4326652820777365
0.43743068352305736
0.463364067340226
0.4447323732052763
0.43480849921743997
0.349327327115093
0.31497344985134584
0.3814841863946645
0.7138465564767879
1.0
1.0
1.0
1.0
1.0
0.9347019173230595
0.5204256481659588
0.4803617275093777
0.5427088054095935
0.470561100326632
0.4250277878717122
0.39151434225133463
0.3845094237475565
0.3815938473393045
0.4112812494892131
0.40430782731283277
0.3954051644379778
0.39165251463257517
0.41836492639157064
0.4129307268093506
0.40962854212961075
0.4037312875425322
0.41862355750083174
0.4325572171791956
0.413452030538591
0.4200319092151476
0.4365808985920948
0.4611836161391561
0.439530972685058
0.45071912734879194
0.44818123047876296
0.4800350943343166
0.4498537776804305
0.46177532723777065
0.455110492404441
0.48784188640453285
0.4687046951960066
0.4808114067036504
0.47477950063709223
0.48850405081948844
0.47780942579350993
0.46679889306545963
0.456747797813994
0.4752911741879113
0.4556945226190775
0.4511927611587968
0.4350072642008798
0.4444342023440516
0.4482361446497377
0.42735520718673303
0.42110999041507674
0.42408207995874925
0.4310108506866329
0.40336399308513576
0.41849607436941155
0.40285606361046467
0.42894515218818324
0.4077591445378541
0.41443389421876375
0.40665985948324035
0.434232869194296
0.4230580288465573
0.42829636919139097
0.42995827416720145
0.44870418394722345
0.4547536530859773
0.4646249106431791
0.47525921052491193
0.5330754233654978
0.5546751030404034
0.56819246609397
0.5620647026065191
0.5679189358755654
0.5685729453438552
0.5227796334588232
0.5200178909010555
0.48300966399553796
0.45916867277071055
0.42038407845649806
0.42642078670210176
0.4011713396070792
0.4267124926007272
0.39651510246964977
0.3960920562346796
0.36113408341445424
0.31389489108668156
0.3131350406415477
0.5585683878092773
0.8803735671912465
1.0
1.0
1.0
1.0
0.8911608637100137
0.4537738967052964
0.4352825398537485
0.47682766759557865
0.42189762152503035
0.3668017495784751
0.34220255445252035
0.3484526209567869
0.3647673962422373
0.3822046276765487
0.36304768236571855
0.3694846365963879
0.3647630375968708
0.38347577089038537
0.3703210501335322
0.37304291789905636
0.3711064748615781
0.41022058877580647
0.39172028793913527
0.40235651826401025
0.40225018956793834
0.4233513744824272
0.4211243060158069
0.41464207017115734
0.41371362465732864
0.4349147462971231
0.4288324580261419
0.43165500465436424
0.42852163592106196
0.4538616195630868
0.45140988006924027
0.4477057273247774
0.43761153452402635
0.4343188776483727
0.44962110023802904
0.42374434981528586
0.4305843657970388
0.4195223788430467
0.44605679390791736
0.4228361085127007
0.42453016419474154
0.4147616846895367
0.43029888596686555
0.4039599667549834
0.4031479227842028
0.3895519870417541
0.40298640808946223
0.38390556910929796
0.3835817219773913
0.36894674916252185
0.3912842518354365
0.3835375013796504
0.3931008863801835
0.38466007125230256
0.40411040443642793
0.4019060350169584
0.402040210338155
0.39064198521802257
0.40837395679640104
0.4162684615820611
0.4250200368294562
0.4261748071655422
0.4485231789024519
0.49384952110421204
0.5117043383811194
0.524014410694863
0.531460401863725
0.5354929089973324
0.5114892345282753
0.4941834748906624
0.48604243287983084
0.46502886495718954
0.4275921511315216
0.40779221836166657
0.37830851410054
0.396391759043341
0.3769356635068533
0.3928460372760894
0.36401679853751834
0.3580073179510239
0.2793286122332837
0.33089463142796555
0.5531915551172865
0.8983210345898816
1.0
1.0
1.0
1.0
0.8851271428539003
0.4805183042070066
0.4354885448486948
0.47685977625368225
0.42955000611487354
0.37131670960097274
0.3612531712366466
0.35289803896056393
0.3789494399199227
0.37956582520560184
0.3699817883114015
0.3590347927200942
0.379944857079357
0.3722132341403198
0.3758742254914342
0.3725142494880052
0.39161761474942913
0.3962759288059529
0.40230944877731706
0.3837702284716329
0.4111903386365883
0.4095713585003562
0.4130287248768242
0.40788036025813373
0.4303805959643549
0.42015562417082847
0.4366807294934073
0.42070130858309784
0.4378210879331492
0.4463262059668275
0.4562405431322312
0.437402677299359
0.43718122709196
0.4486221493525947
0.4447519001292308
0.43834679344819394
0.4285125449884042
0.4417914530559498
0.4348574502976551
0.4329653556295424
0.42142583003773637
0.42966559830423795
0.42135515752961467
0.41876305012257686
0.38869367268816846
0.4093292210559779
0.3958361877183365
0.3914695924282681
0.3705011870232776
0.388834303022411
0.39076268662719293
0.40737800225824994
0.37969133881414113
0.39295267918034227
0.4011888257455742
0.4111001298855273
0.402497706310253
0.4155060452793581
0.41918120791837615
0.42821709761391424
0.4299360529668892
0.4437327307987721
0.4602153677615505
0.49622533238177297
0.5213132334139783
0.5425284686427921
0.5484194232755011
0.5512862698722271
0.5242739028332902
0.4939295436590546
0.5054734057487834
0.4758091236976652
0.45500433155230374
0.4110760878072185
0.4239592285989886
0.4099024303893207
0.4217335553962608
0.3988210112802363
0.41050111377996723
0.39804434377006653
0.3563993214561954
0.2926328506646717
0.40214690419195626
0.6852939999824608
0.9589132288301423
1.0
1.0
1.0
1.0
0.6598916033000293
0.4180524658521885
0.49395380231330244
0.4751609193231898
0.41053383583298253
0.36291568267097407
0.3908397232794169
0.38730040176103914
0.39667499730922795
0.37507417253348774
0.3898561543049303
0.39993456904890445
0.40080294129201627
0.38541028897148616
0.38535550323562695
0.40224105462561777
0.41584908843015456
0.40582529342988566
0.413026573758079
0.4165096585787481
0.43689424930974613
0.4297154722779767
0.43505207841400806
0.44470912586912503
0.4480991958515461
0.44925309220245735
0.44355726955061536
0.4644205268706266
0.46883870369011504
0.477663985800199
0.45530529459050284
0.48316126110510166
0.47139882321822524
0.48317226605961333
0.4544892246919356
0.4668112497665974
0.46854078253702774
0.4739398641375808
0.45669783998336
0.46003363394374575
0.46469861045471783
0.45378981461408
0.44060242325594307
0.42894622432452145
0.44972752407430017
0.4394157472070474
0.44146325051628643
0.4180210421267453
0.43447770699575206
0.4242919065572103
0.42072729828980276
0.40769118856176484
0.43549574278530123
0.43547812131336183
0.4441653627247736
0.4291614560103195
0.43801046952561495
0.4575911833655799
0.43920208737368693
0.4509930164034445
0.44699586765580923
0.47464448333969556
0.49116183618352255
0.49515652956078027
0.4909825493942458
0.5545216001555848
0.5618729460182733
0.5760951730506019
0.5681404108830389
0.585735747562401
0.5581100515015998
0.5352098344330708
0.5404949462884922
0.5212626158685544
0.4951591242279537
0.4600051948293341
0.4469240599548784
0.4430789842771531
0.4547404121435747
0.45043519183534453
0.4491430870310003
0.42290988331726986
0.3863651896979544
0.3391681130392331
0.49297679319794624
0.7693342693504662
1.0
1.0
1.0
1.0
1.0
0.6612793757550636
0.4658792574328844
0.5397655022938062
0.5170735318501432
0.46150833354312837
0.4074114361438171
0.4291774753959544
0.42143731691677067
0.43463154879707533
0.4266268212182271
0.423350715847796
0.43100169017571144
0.44276910087947774
0.4330720237236575
0.4337359643113118
0.4406179677583788
0.44302418377291575
0.45189615115516774
0.44081487944969117
0.4542945607445956
0.45602886476063215
0.47875918647254484
0.4568686594621004
0.4775817241753145
0.48816851745736506
0.49234916215073665
0.478480993087057
0.48687101078025136
0.4949689745721309
0.49514866726684037
0.4929568341724121
0.48116644469432723
0.5031241890692665
0.500166153534096
0.5018027466607118
0.486015105434008
0.49667724540323777
0.50151088387893
0.4949077746613238
0.4731242544674849
0.4818425494063788
0.48497801333639634
0.49238158224088896
0.47186698161166857
0.4737808317262953
0.47152724546328706
0.47063968404729406
0.45534910374441145
0.4556442480267733
0.4502882429766319
0.4605951296482692
0.4535407683242704
0.4673466503661823
0.45915027839015216
0.4777792313498014
0.46521432718470634
0.47479544564248083
0.4741646311293765
0.4778755236335942
0.4766230255758857
0.4896254651170301
0.4990042357056921
0.5217789634045219
0.5094535504302486
0.543984833681644
0.5726491675810989
0.6129430988792552
0.6181048050132004
0.6113128114971291
0.6199957688454008
0.6094587836909648
0.6058823686763263
0.5792802028403311
0.5518117981335817
0.5260768871003091
0.5272343737328969
0.49236629721110103
0.48945593189692344
0.4772135463532992
0.5053993766596838
0.4706808410510484
0.4629871594731072
0.40919971077080736
0.3850859829977882
0.5529435282609225
0.8866695009441836
1.0
1.0
1.0
1.0
0.9334152088318177
0.5603722397691102
0.5537111622792136
0.580975223307075
0.5305112916895091
0.4728986057392704
0.46326418885346143
0.43219273794224283
0.46613440023271313
0.4621414015689709
0.476678066872784
0.46187771783215703
0.48007039871493273
0.4702842071107347
0.4874720167940841
0.46014475809774485
0.48673403992655945
0.48689537327413523
0.502106973412852
0.4736438874357479
0.48192227031829127
0.5025066940268322
0.5246534592198795
0.5029764555034208
0.5133280191175869
0.5049241164098057
0.5304675808160835
0.5327613473941597
0.5413726965005883
0.533222406150436
0.5408419794022642
0.5561462754668545
0.5496303458794048
0.5444777492241094
0.5470411208783414
0.5508818974685605
0.5371073751283825
0.5494924832071668
0.5459492709004655
0.5580641398686673
0.5368198360606856
