MLII
0.5
0.634898151895319
0.5
0.634898151895319
0.0
0.3726847407206032
0.1658904495128763
0.04474502840307677
0.0
0.39056824286055686
0.4325509240523405
0.42290108358177614
0.4325509240523405
0.45972549380136946
0.484735374414811
0.45605639231122375
0.4325509240523405
0.4803027872250064
0.5223630531386356
0.5184134402915901
0.5571034760656893
0.6689105070620615
1.0
1.0
1.0
1.0
1.0
0.0
0.09012604369154156
0.4271086184313166
0.44281468663428275
0.4729383922571392
0.49129961997278293
0.4798857630697305
0.4909537834084701
0.50241446173244
0.4773058147049222
0.4740200911062561
0.51455117377482
0.5346347739599586
0.5
0.45578669613965495
0.48843659315588467
0.5431474405625216
0.4981187023965198
0.47361018051335113
0.5203797174582354
0.5910144029266965
0.5674490759476595
0.5481988991869454
0.6106317792251972
0.6870302486322787
0.6836199472283385
0.6888537122029585
0.7410255219360555
0.8530983046254121
0.904608680923231
0.9380992793934217
1.0
1.0
1.0
1.0
1.0
1.0
1.0
0.9949171997936489
0.8615104833353009
0.7928202044473057
0.7115062272830167
0.6468796316881481
0.5711571241645068
0.5444681330876998
0.5442812703562515
0.5206349597095072
0.47220815864538573
0.491153056870503
0.5260481321942159
0.5014277767364123
0.47438324035981366
0.4604189649932815
0.5
0.5028897393685434
0.46193028247348017
0.4949453928762189
0.5257845575846354
0.5279454436294747
0.5021056776935848
0.47609392733394473
0.5027397534876925
0.5452535187115427
0.47436330293429113
0.44611381600436883
0.516654140312856
0.533463800861078
0.4680192530630289
0.419489886267378
0.44646583105981624
0.5066630261731823
0.441033252429727
0.3838624398996512
0.42044126475694393
0.48682410969037376
0.39070955683895303
0.33882695416993613
0.37195467693001205
0.4526888944052538
0.4201853792543625
0.3281851604633895
0.3252364700964099
0.4301278484087532
0.38859419720026667
0.37641049829911155
0.3809715094349007
0.392174944748348
0.4274307146939561
0.4115738931670393
0.37976970560408063
0.4123550319679314
0.43358687204676843
0.4168727776961155
0.3956337124151822
0.37303279861083244
0.43380413713441535
0.42725632405809233
0.3875499232566179
0.43140939309982845
0.45306014928259686
0.43461747413989604
0.40142754177762596
0.41188927988281276
0.4796506731092639
0.47985618336112557
0.41176175043317464
0.41195599845608133
0.47804177648297064
0.46396817602424856
0.39071923714102813
0.39001780860613633
0.4435894195850504
0.43918055693715585
0.41770754206340943
0.40423376822409995
0.44760443620263
0.4869971911179479
0.4471145448048338
0.4171038625537043
0.43970489416326697
0.49224952751495377
0.4835581451637677
0.465434753259997
0.47432450622365074
0.5272995127258859
0.5
0.4620927207163352
0.46766026186777615
0.5325928430003071
0.5117607597809674
0.44276430130477334
0.4490749045425465
0.52369809412357
0.5753073598179089
0.5661584343565069
0.632303311818428
0.7075002004300541
0.7144570341977319
0.8420811938039666
0.9160780508053712
0.9222051882213664
0.8480161186360231
0.8074021416805006
0.7519595325580017
0.6434078299202968
0.5333178382173964
0.4690916066919796
0.3648269610069695
0.37648909088306237
0.4176113873538817
0.41747787396136415
0.339226276592752
0.3582884375145117
0.39848992393327476
0.42504940744241687
0.4151697213545932
0.4152286111195408
0.4917821940895144
0.5236366653108256
0.5011869561234589
0.4957163266072115
0.7087913302066183
1.0
1.0
1.0
1.0
0.6348608881934621
0.0
0.0
0.1026859194027057
0.31770306447058994
0.4955290681587822
0.4453114343485612
0.42744865801525245
0.4956980132383578
0.5124375611084562
0.45179766495048124
0.45498204502263756
0.48070043756996583
0.4886000461516085
0.43152092365858613
0.4637647932864377
0.514682692447652
0.5082452744815392
0.4765468565915018
0.44460902478710074
0.4837784657336588
0.5198517224763084
0.5131944080509552
0.5059740349714149
0.5654322859238402
0.6059006009431063
0.6146159915142059
0.6314331680853879
0.6988108271824542
0.7434229654705692
0.8345560138422675
0.8196470802022132
0.8926554880496693
1.0
1.0
1.0
1.0
1.0
1.0
1.0
1.0
1.0
0.9912619976011058
0.8564326213078394
0.7531110002966461
0.7104036020175856
0.6689549411838444
0.598931665282167
0.524119467413532
0.5442873245555582
0.5913307593815731
0.5583581696353055
0.5035452537762948
0.5241809299155902
0.5694252141397201
0.5562573914638529
0.5186375440474056
0.537903891162861
0.6033151495305906
0.5845831044024616
0.5455603371840331
0.5492283101883128
0.6061792409070766
0.6216668044307834
0.5842103350874712
0.6075082290363985
0.6367204440915909
0.6496847258516452
0.6339598824522523
0.5967129309298279
0.6118320539558348
0.64053624333016
0.622635208687486
0.5726065691676461
0.569332741406493
0.5992178735803159
0.5619937302927885
0.5299221225000247
0.5398759226749148
0.5440577823292515
0.536728148856334
0.49191431855917944
0.5091080658961606
0.5087946614555665
0.508011480835074
0.4584405124585643
0.45583223476286755
0.5155187262488415
0.5126667809850665
0.46852124750040947
0.4576554138871306
0.5075383329855508
0.514833253282061
0.46108657525537905
0.4242594476946334
0.4841400865995185
0.5056397352166997
0.470858187210123
0.4518657265703821
0.45230327722155694
0.5032317305446937
0.4902079116669162
0.43340407355355826
0.45773943009011786
0.49551165614522397
0.4933622758759134
0.46440889624817716
0.443526276507177
0.4999591155080186
0.5113733072716313
0.4524676749702493
0.47096123612574486
0.49967299886939953
0.5067681784756228
0.4640314642199087
0.4504793016092864
0.49543134493810975
0.5313108648329891
0.47595612841565915
0.45663627780911886
0.5349756198271549
0.548323253471844
0.4972923657182083
0.4821995862676083
0.5253705380832672
0.5615694816608225
0.5194622233965058
0.5062666901112016
0.519387017352327
0.5878244189084636
0.5677662197627964
0.545441717502889
0.5506956621267257
0.7504949793771555
0.745634643495474
0.7609296418119371
0.877445530659353
1.0
0.948776175738872
0.8508197313845068
0.7960208809658429
0.8076978711582962
0.6811938908642345
0.49847593464226553
0.42603233829766485
0.42187620964692424
0.45202118286116155
0.42204868457183753
0.37413797426191187
0.39189002545964124
0.44286424823633375
0.43574265745065877
0.40318369266370613
0.45253011112439656
0.5118403778724483
0.5224480559903003
0.4993858513152517
0.5997109943086788
0.7060175278547317
1.0
1.0
1.0
1.0
1.0
0.0
0.0
0.3433508733169761
0.4360114651943549
0.39831455134955984
0.48711889263209895
0.5341129919389477
0.5193878481076787
0.5176743340044917
0.5102381074567384
0.5587483804429033
0.5791079935257594
0.5272812572766213
0.4958286898890226
0.5365586477078063
0.5842316498769083
0.5706916004987617
0.5276338723520139
0.5426780896568864
0.5982329694978362
0.5769277005349356
0.5852173687036653
0.6201532927998388
0.6901146508168502
0.6994547782377002
0.7008601132582953
0.7413821022887912
0.8554194160587112
0.904240394915351
0.9322494863685149
0.9969978389147798
1.0
1.0
1.0
1.0
1.0
1.0
1.0
1.0
1.0
1.0
1.0
1.0
0.9441113763064326
0.9054709224138875
0.8104522292797499
0.7125548489959592
0.6993735999898267
0.724516008817204
0.6904470268877096
0.6638598400686913
0.6446242829069231
0.6742613480347355
0.6621559371194686
0.6448109265809434
0.6416947480799702
0.6852766472607309
0.6825820427604697
0.6897466938005464
0.6455813196941536
0.6941444458217977
0.7150990094214281
0.6671481191877399
0.6787025048805895
0.7092586801053158
0.7231854599852895
0.7010164364129337
0.6609793693334074
0.670691644504384
0.6820816528781387
0.6624547744828819
0.6150181810711908
0.6388919850659184
0.6622040847340258
0.6486933795432286
0.5969380141041815
0.5898117147479394
0.6326894399143431
0.6317686418756561
0.5839138485757964
0.5752327890579382
0.6028753701056532
0.6190785323717678
0.5915416184966809
0.528930751356117
0.5726023365588182
0.6016255956421929
0.5497054115360751
0.5375248687356071
0.5638833396366779
0.5975710841117216
0.5787222512421593
0.5482931875150662
0.5541229184150149
0.5812923325218435
0.5790720808837253
0.5388908502926584
0.5498485705199236
0.5945179710925024
0.5792251775692654
0.5481421924071481
0.5409056131904963
0.5707321044060969
0.5813653431873472
0.5446883583328976
0.5230808986678454
0.5297241469381277
0.5414265458897958
0.5130020849017275
0.5054448198400984
0.5304908176125102
0.5433943963863594
0.5504554399142674
0.5275651512921042
0.5326760310668034
0.5694225129052131
0.5483541749974747
0.5087515836170933
0.5266423470787033
0.5694010011601162
0.5443323316223632
0.5182531855567186
0.5299408851853331
0.5639039962416112
0.5538931531420651
0.5349843362256331
0.5399578153269355
0.5880769011045845
0.5827188256539133
0.5385004844210729
0.5253250197803843
0.5878224354843166
0.6244885031689502
0.5875200040870399
0.6594832090314464
0.7412306431321781
0.767539239933326
0.8180694416602978
0.9041715135764304
0.9282933938542974
0.9009676394213468
0.8248775501646284
0.8143948680751493
0.7623404341823752
0.655110546288918
0.5672555105817375
0.5011361529564669
0.4657970790034053
0.5071912688503939
0.49856578975695287
0.44823955830389073
0.44564286910957096
0.4996249217465774
0.5077121559122693
0.47041908082325146
0.47067785190336686
0.5055952873260174
0.5449017495619238
0.5507434548602692
0.5747676249453343
0.656786487497733
1.0
1.0
1.0
1.0
1.0
0.0
0.0
0.3784372366729215
0.4046480048642345
0.5216913005311477
0.5101839155956359
0.4912373339301748
0.5382386027900802
0.5360585288499149
0.5193615061000548
0.5128151105354043
0.5351989964209242
0.5530934565166155
0.5233308612010872
0.5108683973724605
0.5462237115589698
0.5677217746888167
0.5103654097215593
0.503074123171485
0.5797634892935624
0.6143188269567617
0.595195824118888
0.5857204433610086
0.6229020979097679
0.6695309012109043
0.6928023829551627
0.7173019367700662
0.7579498733726671
0.8430375050167086
0.9088192483731042
0.934543423467262
0.9870105510790829
1.0
1.0
1.0
1.0
1.0
1.0
1.0
1.0
1.0
1.0
0.9246428491635074
0.8254404647321281
0.7439293497919554
0.7063141603871776
0.6569089206992544
0.588076481574406
0.5760438826440071
0.5993210121338091
0.5650064577352231
0.5325578463160079
0.5431101813214199
0.5893563618179234
0.590064219552386
0.5418987390298262
0.5393346829486398
0.5919997231661603
0.6008285810043026
0.5562362767296143
0.5700328134161214
0.5902845900545423
0.621526048994085
0.5803497949438985
0.5628547702576693
0.5967362468364625
0.6080718681921373
0.5776581623519734
0.5586164926793713
0.5603359101601632
0.5622146602421926
0.5426562253934016
0.49563491716530805
0.4910360046043004
0.544547806542978
0.49112784360114226
0.46906995943892876
0.4749563991064753
0.5069702997382572
0.5242193288385874
0.47911640102056713
0.4677178521460738
0.5250645002929579
0.510007160516625
0.4512344072552924
0.4749099594299489
0.4998887610677161
0.49914184326295763
0.4635959561388285
0.4630614822169156
0.4872735879908062
0.5339903152450196
0.5043155073337318
0.46946512345536007
0.4899758153660221
0.5103197441355607
0.510399225373232
0.488121035265788
0.49157110041812935
0.5280285574006489
0.4928287643598749
0.47224633806892086
0.481749534585557
0.5400293492826822
0.5452763510671856
0.4691279666076418
0.4688137904223456
0.5428698237200693
0.5525915023769331
0.4943033987356119
0.4933953556674725
0.5379429451870923
0.5343049932898529
0.5170792067096951
0.5260249671507012
0.5669929716009836
0.6803563698094406
0.7044580657090229
0.6901310505040847
0.7864267567469326
0.9389074012308715
0.9351851149587581
0.8101047665703905
0.7847817158786652
0.8449017014396449
0.7011608243300154
0.5223463049632653
0.49507557734587887
0.4921952977462477
0.455821732734181
0.4146380797603048
0.38927909323164933
0.4499487191649864
0.4666843865832563
0.4124588760763091
0.4073393403689721
0.465160799295581
0.4969310951902569
0.47423926714446785
0.4863377673283867
0.543066348871127
0.6358951282757208
0.6015021511720925
0.9622457750823392
1.0
1.0
1.0
1.0
0.0
0.0
0.07182420563976662
0.23517242978430192
0.4293883515163996
0.5108201152758614
0.5030686840979011
0.48670899292081504
0.46490183140281316
0.4888484974680086
0.5482579967236156
0.4974381583990377
0.4904849497321484
0.5213335251842175
0.5589447514883726
0.5009371299250434
0.47330635552122446
0.5132438217802765
0.5672854378163878
0.51900399725724
0.4804032675349741
0.5286683839642017
0.6008283957500922
0.6118294115982952
0.5952130271934264
0.6355875237809736
0.7623420616444824
0.7883927985671166
0.7849006513842094
0.8453901422621449
0.9720871298883464
1.0
1.0
1.0
1.0
1.0
1.0
1.0
1.0
1.0
1.0
0.9084437821149651
0.8305667893763482
0.7799877482892567
0.6959727444749337
0.6087618121531277
0.6132776559670388
0.6452900659420846
0.6018059143572593
0.560431013001917
0.5893893059312534
0.6154376399054717
0.5999374167329741
0.5650105722295085
0.5853924206041894
0.592686991195704
0.6152232841568112
0.6129931431368554
0.6085448604482295
0.6717955545852524
0.6768220464618983
0.6610135140481864
0.6361763185302662
0.6733275257271027
0.6879248497948047
0.6398557253727687
0.6223763608681524
0.6612615541403735
0.6868514271137937
0.6428175301694229
0.5919675716699068
0.6119351062148637
0.6575534026674431
0.6295836700990539
0.5798106544396899
0.5961420822521319
0.6001968315809495
0.5971033310319573
0.5551621656437964
0.5613666185610873
0.5933057600710715
0.5922630727657464
0.5643461095755902
0.553802788199624
0.5674036820339368
0.5637083084413655
0.544001421869637
0.5410492892889209
0.5670114608290823
0.5759272609597268
0.5754125569642425
0.5534507176292258
0.5478808305787359
0.5814654204375763
0.5575954504195485
0.5185557039446469
0.5493301225165256
0.5918542788174725
0.5759075028732373
0.5420914376169365
0.5511631965271533
0.5823993359581272
0.5752541310205574
0.5539243321506798
0.5328631445672591
0.5821507869375803
0.5742494098471853
0.5504695666523056
0.5447710443551578
0.6005823854874462
0.6680496310145141
0.6779388511216363
0.6869723229485165
0.7300733973066666
0.8471447121673812
0.8886147993141206
0.8212174714906073
0.8215303959475895
0.8167454421873389
0.7610967297593167
0.6365093054556387
0.513129384232414
0.5218744873635706
0.4790242631165921
0.43142222910094913
0.4327557557778944
0.4477801069790736
0.42705955432983195
0.3772562869183407
0.40597497817646816
0.45253975995440276
0.4732040861224248
0.43963092105772167
0.4660992566639394
0.4912009965523153
0.5179141344305884
0.48977931784002154
0.5482043372461726
0.6708944010706356
1.0
1.0
1.0
1.0
1.0
0.0
0.0
0.13525475154874633
0.2849623050440758
0.3231244122081155
0.43912300225867806
0.4795366989029223
0.47964386205476217
0.4864835228185439
0.4419151853445988
0.4740224576165509
0.5044218651077912
0.4926543951209875
0.4675011791011804
0.46492381971015606
0.48725640608692267
0.5238303644560296
0.48887470769528585
0.4631921994154077
0.5053313921075323
0.5442369089586563
0.5261770684910283
0.5219818136364367
0.5513117411770894
0.6014572967844886
0.6090163588100218
0.6102679539550063
0.6751787559393158
0.7550920671161115
0.7912331700921582
0.8230979494558293
0.9073622603277827
1.0
1.0
1.0
1.0
1.0
1.0
1.0
1.0
1.0
1.0
0.9345129504804692
0.802563302183019
0.7425139221977527
0.6954011482073836
0.6153347896249776
0.5680512235504351
0.577164129434071
0.578643541004864
0.5518465526508373
0.5152015812648618
0.5164009972747534
0.5522620389620767
0.5273533447996346
0.49056556229494175
0.5130495968425173
0.5474607667502014
0.5602498328395826
0.5296361705902115
0.5266727406602632
0.5640741704302965
0.5998256311991919
0.5447783440747973
0.530319024030075
0.5752058036954039
0.6003035540059136
0.5572625081197559
0.5394928709881163
0.5643218226531033
0.5742481153361345
0.5177849175742095
0.499985413951071
0.5038725794214092
0.526532765960142
0.4816567239100868
0.43562411613259
0.4669309540014105
0.4959192866457512
0.4656279213389232
0.4371138685388023
0.4377020383420088
0.4859385192840092
0.4858226731022331
0.4322563714626983
0.4148170180162604
0.4592390566841657
0.46619349278408534
0.42822388017530166
0.41704289992172894
0.4544754113152555
0.448441521399186
0.40914903454490215
0.397658374549762
0.4199179741491454
0.46153961538845384
0.4371479427788419
0.41874241095353637
0.41474438168263494
0.4419613656182218
0.41643426451393406
0.37146337419908454
0.37483969747719925
0.4306097249113495
0.422365030904004
0.40870187766869065
0.3795419107872584
0.4325509240523405
0.44818217721972997
0.38214998258938043
0.39887559931355343
0.43170618346278794
0.44226500625115606
0.41561618736933975
0.4019968782282365
0.4415385925388735
0.4738259543115452
0.43665875687939676
0.4230391023744935
0.4632771840109059
0.47224442859648486
0.3998446165857589
0.42034884906138076
0.4426424514172611
0.4783524766632657
0.46891123674921104
0.41752210171767423
0.4378849884932682
0.46975685048832955
0.4697296732571174
0.41899071165763563
0.4426007328549043
0.4867265478614839
0.48189972312441604
0.46604394974508556
0.5
0.6095338503503548
0.6692417023595313
0.647875498411229
0.7008627286344143
0.8300957934086476
0.8285394566787427
0.7499754068506792
0.6729760536015512
0.6895252984293248
0.6599992776529344
0.53583344008726
0.38576019342250173
0.3771577146107917
0.39200647139951517
0.372719839777868
0.3389612867460583
0.33944866193277956
0.3710959160258301
0.36486125256227364
0.3448685278757685
0.34568281775522997
0.38280489787049393
0.3987931347534003
0.39434541270710444
0.41491563872892734
0.49872756553945524
0.6988184328338087
1.0
1.0
1.0
1.0
0.0
0.0
0.16251291617573163
0.30507934425302163
0.30112126471733075
0.3945149483585514
0.4021149046431269
0.41566693435682617
0.3990862585553635
0.36943743768407533
0.3849299915448157
0.42429792459077875
0.4096893914400893
0.37182192435909905
0.3598732908343485
0.40432726683464093
0.4409154663866869
0.39715126813707835
0.4012803128765784
0.4249634359957934
0.4367712310083922
0.40401451338335964
0.42087041613795806
0.495248182685717
0.5214238247758813
0.5212476536154531
0.5202627569178694
0.600599456287908
0.6773001991417265
0.7118566016342498
0.7415063580878803
0.8482169935888813
0.9364026568297488
0.9774863583958767
1.0
1.0
1.0
1.0
1.0
1.0
1.0
0.9904993181871822
0.8517143151412387
0.7347237811684579
0.6532366626932704
0.6047120556459449
0.5449749512589136
0.5179467200442833
0.5381107258332695
0.5392088237677641
0.5078224563964678
0.4895866503550172
0.5042249146925888
0.539658663686849
0.5242214239344003
0.4955748453957839
0.5306152365031545
0.5675885301102307
0.5630003643535335
0.5336670799694584
0.5337748027106382
0.5808025092994537
0.582895966303562
0.5415022352172875
0.5439485355160651
0.5857911334505377
0.5763923650061087
0.550591162882436
0.5378506090769338
0.5616425149883967
0.5726874881994998
0.538739529490767
0.4939959604411965
0.5301648074568164
0.5437335198926913
0.5138187961010374
0.47925172459102894
0.5054509537846542
0.5353926010381796
0.5054527318857936
0.46400433418983783
0.5041487662784635
0.5373959378558388
0.5014041497849956
0.47728703940110107
0.4744022056912985
0.5168652025507865
0.5177259202666507
0.4824616728499854
0.47383268787671395
0.5017970675449652
0.48677558299215484
0.45707764487698854
0.4605410679609069
0.48303645723963634
0.5058571445712409
0.44912436662051575
0.4479843564605709
0.47187902090035844
0.4866485732635388
0.4721513774375593
0.45615614774171337
0.4751100544305715
0.5065152114787834
0.4943278639576049
0.4466432949002298
0.46256313809482325
0.5187256392544636
0.5032209713115797
0.4617284990146687
0.4376150041235447
0.4861466090436778
0.5119707454101279
0.4713747037857071
0.4593328758271734
0.5010701732669044
0.49845433205056294
0.44764544970197323
0.4861065637252603
0.5734455189119283
0.6559226938686222
0.6572609960322823
0.5946921918106722
0.7663392175739838
0.8990643979580056
0.8219335139860469
0.7253340051853042
0.7212219439764664
0.7277378208657139
0.6132773902481843
0.44564202153851185
0.4160576232322722
0.44819554014866
0.41334169625386136
0.3682422085195615
0.3618918770392826
0.40569525728382566
0.42124810919421296
0.3826341242133509
0.3929245741099737
0.432622345254689
0.42772315427046026
0.42187458212645
0.4485849518723839
0.4754031562826232
0.5508824653154811
0.5540195931697846
0.9383270189362207
1.0
1.0
1.0
1.0
0.1477910685991694
0.0
0.0
0.06628870934226824
0.19665517635760715
0.4457157402716165
0.4515664843613683
0.37521593909245843
0.40683265127743057
0.4227147640313952
0.4463194468025077
0.4270878884985404
0.44006539027593783
0.46312922031981874
0.4781667109130181
0.4439077631743104
0.45321233197808064
0.4802839462205619
0.47827958326713943
0.445166708165477
0.4468143945499975
0.4731197553850185
0.5325914131007035
0.5320285088320483
0.5266961657645407
0.5769288995007206
0.6310058144997706
0.6573005751371984
0.6346187115124771
0.7047068618394889
0.8160438866714749
0.8659461111311014
0.8914372081234443
0.9623885301907965
1.0
1.0
1.0
1.0
1.0
1.0
1.0
1.0
1.0
0.9282582646888489
0.7902815107505343
0.6786624646656158
0.6622986220872871
0.6693659712737042
0.6131838505979154
0.5837291186620556
0.6014081602421868
0.6197763295935635
0.5846781706154949
0.535347636660701
0.559918278448677
0.6204724518904199
0.6080790679056686
0.5510124391711965
0.566247900671716
0.647359221832944
0.6480439308099976
0.6280476551634674
0.6117191268545397
0.6678660525620623
0.6908034716844644
0.6477262767788848
0.6310460291559284
0.671961224405
0.6906532337248061
0.6738478924928939
0.6480490395257344
0.6745490804146377
0.6936517402651571
0.6556616973174728
0.5925952197145431
0.6285844454388906
0.6514118366750291
0.6442010129879303
0.6156671277825929
0.5950508640121939
0.6204741453937597
0.6209602929007874
0.5867266247526842
0.5932331306578551
0.6163594689388134
0.6213116183458786
0.5923367898580246
0.5741620120991413
0.6075980934703763
0.6185354495058737
0.6052753289674258
0.6006714763974773
0.6190764995831382
0.6076365673112258
0.6069322293921393
0.5759104243348562
0.6179148203524442
0.6365108353894792
0.6220401364087709
0.584733063196744
0.5967719576943565
0.6453168662791645
0.6435884075583173
0.6192997840730536
0.6092264258563255
0.654924610283862
0.6657098494925247
0.6407911025628905
0.6797514337935854
0.7453548846416765
0.7948666385189622
0.7953083481866203
0.8522058333280083
0.9767928550450291
0.9720198786649649
0.9003774188551997
0.8643697113113487
0.8936612645120539
0.8256464782763622
0.6784840245323073
0.6040859887925204
0.5969594893817358
0.606263246356702
0.5657837791280567
0.5424295187727124
0.5492419906487591
0.571169339500337
0.5607168989388429
0.5446852883084066
0.5513215004123275
0.5670728230142872
0.5850267815418374
0.5574256413567829
0.56744574577843
0.6257648537412411
0.6985767276785221
0.7104713861219825
1.0
1.0
1.0
1.0
1.0
0.0
0.0
0.33940886121537545
0.46788146560035815
0.5714333437666331
0.605184112520225
0.5926475156011557
0.5796764636378549
0.6034561228464153
0.6355940067165582
0.6363843059261183
0.5993215299327862
0.620251500891991
0.6614202393189442
0.6593687414155714
0.6153506142828222
0.6021635661595789
0.649165531788955
0.6665642255502697
0.6448687321702634
0.6560620108158746
0.6874201629594403
0.7243504998694675
0.6991758794424525
0.6772730478525557
0.7422262254707312
0.7941440829625626
0.8176232026138223
0.8480146418915343
0.9012620007033327
1.0
1.0
1.0
1.0
1.0
1.0
1.0
1.0
1.0
1.0
1.0
0.976542732364444
0.9100863740837504
0.8352874558977289
0.7741525806977466
0.7138665051488694
0.7049732271250202
0.7212831689978165
0.6824933113737
0.6472301110761335
0.6684989731042776
0.6792809362088981
0.6526394981359809
0.6250627980799972
0.6486035928584746
0.6656240383208643
0.6535330234352068
0.6147926359430649
0.6431504830179208
0.6887358390048481
0.6886401188893744
0.6664203546158436
0.6693915029773942
0.702164608268341
0.7218019869906682
0.6982022504734847
0.6835640215465486
0.7031945656915063
0.7046706545931885
0.662205233437185
0.6457405626520907
0.666692147461412
0.6831366281479013
0.6334430149856736
0.6005576595969068
0.6298980425572558
0.652196546756107
0.6095177550587533
0.5993652009072381
0.6200076888019073
0.631713940539617
0.6016048923434167
0.5796453448680638
0.5824099424922108
0.5964388218036082
0.5850082133492701
0.5684692475554961
0.5671776995892966
0.5972287169962146
0.5938301343211645
0.5537313559777293
0.5547647150778577
0.5608936861774926
0.5521569800623825
0.5414493892218768
0.5530345236947045
0.5784803345876603
0.5837986539120452
0.5543254068039174
0.5534433724241025
0.5620351291967032
0.5834307611575846
0.5614348274670024
0.5449837653937402
0.5688548807159279
0.5949444193980751
0.5786023031054804
0.5553510180977561
0.5525485436637383
0.5751780712175735
0.5733649891350923
0.5310803771913408
0.5447582998274807
0.581211528812383
0.5838925957110452
0.5528096724928938
0.5497202260161065
0.5789865659196862
0.586907237314936
0.5655044817010559
0.5641257704030047
0.5719953528600353
0.6034340780829387
0.5759883934725831
0.5608909337793774
0.586834584256578
0.6063692302206103
0.5782033349954583
0.5606960289083227
0.565248042877754
0.6053127540406278
0.5897775516109477
0.5755546236230206
0.5732698589846338
0.616284658495634
0.6197270674199855
0.6307659123773623
0.6927244773385122
0.7322212928778036
0.7515940232179007
0.7861152814222979
0.806557705844131
0.8017334610944257
0.7778667336059761
0.7301537858725622
0.7033094938479938
0.695703852592891
0.629574167458221
0.540731424034561
0.49876535617351375
0.48494962919966644
0.49486379136810027
0.4987986672071643
0.4500641608819261
0.48802713346908944
0.517699389114837
0.5176570241155717
0.4860147715525197
0.4985559207720051
0.5327939041733345
0.5420026118880567
0.5349208060827426
0.5839623515983589
0.6794247304242047
1.0
1.0
1.0
1.0
1.0
0.0
0.0
0.3854173902683603
0.429841528066545
0.4237594073365016
0.48361026004724916
0.5151990628423699
0.4944328924132588
0.4811292488084901
0.4760450780668367
0.5015208805679718
0.5188768114217159
0.5083345198204637
0.4889100486891702
0.4923444941488224
0.5131059791700947
0.5197677945485146
0.4896520816841097
0.48746763642726687
0.524126315199259
0.5302466449091914
0.5252581615347389
0.5162331892568545
0.5549942509105752
0.5799289343104157
0.552311823369217
0.5656862882387983
0.6242148133529443
0.6661472323743236
0.6900881507584907
0.7080542005693635
0.7752568058131569
0.851478907158274
0.9030392508448685
0.9384798983538312
1.0
1.0
1.0
1.0
1.0
1.0
1.0
0.9607638393203886
0.8898308966472787
0.8210670637783005
0.7529027442556389
0.6756497648049044
0.6174000367625149
0.6268660609543295
0.6219777602507802
0.5747856005558307
0.5662721627873979
0.57922327119736
0.5971711363186377
0.5704971874253151
0.5426492058663387
0.5656899855622542
0.5843641015695209
0.5750494612122573
0.533981328491273
0.5586855868412337
0.5990282070830473
0.5933157662451682
0.5646849448506621
0.5673859135071577
0.5876811959829605
0.5958279011227838
0.5419264797833421
0.5655530461587576
0.5785714142056249
0.5803861130975342
0.5631447335802168
0.5531171015453864
0.5708706667714185
0.5715394129974296
0.5380826182736427
0.526254621272386
0.5397391719601712
0.5515115653439608
0.5289086942813841
0.5069216223399088
0.5162660306099488
0.5496047761196724
0.5199539672394606
0.5015008103933851
0.4979045096851161
0.520925951478153
0.503868530870099
0.48403602052120204
0.47857523214301123
0.5190276933203715
0.5117598088733892
0.48163220228681014
0.46677716709202033
0.5036661658543429
0.5057997422733985
0.4709359720134243
0.46131508755704054
0.49861361265072385
0.5104844348413227
0.47053231986830885
0.4726184168073323
0.48764554425948586
0.5115820253353369
0.49150032650240477
0.4670597414723396
0.4918418326663355
0.5047223096288537
0.4925776509936767
0.4646821038113459
0.4907567669534381
0.5224389883366398
0.5136304814733014
0.47643464099228294
0.47499572740168494
0.5152950867011384
0.5052907261275611
0.486661218342327
0.4985580014013884
0.518065676392182
0.519576480673128
0.49128644372957986
0.49953474964001365
0.5137448631174003
0.5289767583220543
0.509878272466366
0.49911700875533904
0.5049009911891441
0.5162943567972675
0.5184705664229174
0.48770242678123255
0.5023707549054235
0.5693397410785546
0.5939493034302196
0.6159982318811235
0.6491740920993738
0.6826732063384141
0.7666273699097055
0.7929926204522939
0.7372508087558873
0.7237761204428197
0.7000862202898055
0.6525407457172627
0.55302191622511
0.5060146753262224
0.4870296517531614
0.4574401182893526
0.42975726908221745
0.4766634403184386
0.46672829581564707
0.4432554577954623
0.43750490993444746
0.47385816314290813
0.4801642511373917
0.47454711435927727
0.4659702930672659
0.4890577457522478
0.5344089360545837
0.5604238510961012
0.5486371311250855
0.8124723348452594
1.0
1.0
1.0
1.0
0.07340778703071411
0.0
0.17248909923049555
0.31655518483162937
0.4419845149203289
0.5346504215806094
0.4882803050179708
0.47343601269570046
0.5055691074453109
0.5391658646981103
0.5106573290546413
0.4868358937320436
0.5151702061917234
0.5298613745742389
0.491563286854565
0.48905140314833184
0.502377257568303
0.5583924955488323
0.5498214174656348
0.5161271412563082
0.53431985648595
0.5620522397216032
0.5628423386476527
0.5451974750798616
0.5777901700162353
0.6379704427151885
0.6662514542309371
0.6722313245402771
0.7009854092811216
0.7887389004893475
0.8462980732291733
0.854957455606207
0.9114325563164968
0.9863366742680049
1.0
1.0
1.0
1.0
1.0
1.0
1.0
0.9483268137477705
0.9019403283564096
0.80593026252198
0.7118469050408072
0.6646592540616532
0.646184198278579
0.6574719926013362
0.6014904459736502
0.5992847049818685
0.6051662804521276
0.6134178330586592
0.5900779551951587
0.5690298935579264
0.6113756772662229
0.6039837073748897
0.587730087219221
0.5739087586494047
0.6145908745904303
0.636836453318847
0.6173908181418357
0.5945665722496443
0.6329332315014695
0.6874022567833336
0.658243193704482
0.631058475180487
0.6602405021280778
0.6740530667401632
0.6763981012255929
0.6463034815764163
0.641160307446424
0.647802597055673
0.63694864867139
0.6246475283351121
0.6158739992728774
0.6329167854457508
0.6183085552964425
0.5984652371952693
0.5958298471248984
0.6043930712314849
0.6112361447591317
0.5790792182488237
0.575416804538005
0.5859200530470099
0.6088161524779545
0.5901688540619312
0.5583188261564519
0.5760937140138073
0.5957608152514278
0.5604518621894252
0.5422206807118511
0.5759626486939979
0.6012421733515116
0.5802599821689849
0.5682903125209826
0.5770970200734868
0.5909541015007681
0.5897165382480305
0.5640125324653448
0.5565036530454286
0.5790052710583723
0.5903751612436359
0.5654681868529579
0.5622822533798544
0.5930263289636484
0.599957149842833
0.5883535844056242
0.578725686825219
0.5843245636030587
0.5998908880794132
0.5927204420524754
0.5663276260743738
0.5906154034697828
0.6163091463857365
0.5832231999737332
0.5777739566484665
0.5725978359318027
0.6278118992470376
0.6230850186422903
0.6150319743825197
0.6617455781442316
0.7193776027455309
0.7211407280766287
0.7600599447665066
0.8324210972019443
0.8468489491640184
0.8125845385040389
0.7707885493317294
0.750671969841018
0.7337735251729992
0.6423945408574467
0.5725327891258835
0.543895667110645
0.5332990062243435
0.5393215527252703
0.5310934747332662
0.5242792866671601
0.5297980587052787
0.5546308683374701
0.5388860892110684
0.5179113490810361
0.5221547978141029
0.5600487289322722
0.5593846448883372
0.554460372125875
0.5584439102643104
0.6271905127954078
0.6510114270850833
0.8185924965853355
1.0
1.0
1.0
1.0
0.7399812358471414
0.0
0.006312813881808666
0.3225403383480635
0.3604095845138785
0.49784923506946077
0.5785973615675144
0.5266982055426306
0.5055677447398944
0.5449763941784459
0.5819005587261803
0.5782660882724572
0.5443471065769631
0.5498447977039895
0.5784924002577347
0.5671100313353459
0.5446251137775574
0.5532466285706886
0.5721679697395049
0.5630014944206616
0.54949648582004
0.553467530995228
0.5683503091664595
0.5975651733274067
0.5661527694669026
0.5702096478847405
0.6085611200557469
0.6480011456034933
0.6582170355480678
0.6751366058620633
0.7171195741375472
0.7549257924876086
0.7918654212558665
0.8126090598799841
0.8727733514112025
0.9425308956849655
0.9728708622339122
0.9978088193247912
1.0
1.0
1.0
1.0
0.9987608353112719
0.9633199493155586
0.8845462969630885
0.7837276233910453
0.7134655463198658
0.6829661696894579
0.6562042502575558
0.6196038088267929
0.5931704480497058
0.5962762329137596
0.6126544608123901
0.5707903029509752
0.5448004121453802
0.5494478179071169
0.5835019062298571
0.5594373531853297
0.5407936359272002
0.5658023564551667
0.5916254536478769
0.5862143576600147
0.5605958249764483
0.5652325558734298
0.6021832631898671
0.6028015586376101
0.5912462519653202
0.6047742857216394
0.627534927649059
0.6233739006569234
0.6020032066098101
0.6025945758697807
0.610088684561814
0.6159384899774455
0.5858140192361644
0.55947947698332
0.5845053600292276
0.5920327085744137
0.5527375645835837
0.529890531062452
0.5490355039598961
0.5560250413540496
0.5508298786966336
0.5227892484109489
0.5308866818144609
0.5592398709259202
0.5454586654737871
0.5099546557860712
0.5167443090946544
0.5338373799366167
0.5263738647521552
0.5071544890107413
0.502887655496872
0.5265119109963421
0.5205100972357105
0.4946175163785166
0.49045164696864096
0.5171221507341734
0.5181254366287625
0.4987055908257664
0.4851163612142383
0.4984398997917049
0.5194026419037651
0.48849209423151263
0.47734389182970965
0.49118013814052974
0.5095476316792904
0.49496065235855113
0.4744070265616515
0.489229497464389
0.5159235962312894
0.48552491150752913
0.4721967084350137
0.4895319234694885
0.5016121530747729
0.5106649291071588
0.47612095972419677
0.48596897076486806
0.5095369630170953
0.5205087515283806
0.49366535915658716
0.48827225677206804
0.508476850938621
0.515547135140279
0.468791456531284
0.4664594783509332
0.4873950161574993
0.5140998581953309
0.49105778070292005
0.4753188605724376
0.4902874961210063
0.5178955274676149
0.4831357244126922
0.47294592146146675
0.48835176076356135
0.5104637724132596
0.49323831071733687
0.48658570854906075
0.48416874075684796
0.5029825257864273
0.5097773475886294
0.49194405890993276
0.4831623770535699
0.5069626721670276
0.5125479312419705
0.48823964435298717
0.47688143998924726
0.5074918224412379
0.5308277689568797
0.5323240564685299
0.5474968206723883
0.6241638201257299
0.6539829362905281
0.6497287258768664
0.697162339865718
0.7366512807729425
0.6947256955013833
0.6615121264310574
0.6299970743106708
0.6194061690772932
0.5827328476301876
0.49463682697541395
0.42167799887210455
0.41898003412604073
0.43309501425267793
0.4399885982537491
0.40943748604428326
0.4060671815955921
0.4454839253045968
0.45470666133958615
0.42536849251813597
0.4221771821235302
0.44785386444162895
0.4672810961799483
0.45495702023375484
0.4691506541964158
0.5295123339498231
0.838159250032923
1.0
1.0
1.0
1.0
0.0
0.0
0.37472126149643115
0.36990053494359615
0.3889739874026994
0.43739219001234464
0.4394435848271761
0.4463645992885139
0.4501478665986383
0.4300325347291219
0.4288521371442725
0.4532599122383137
0.4633819760308556
0.4246597227506325
0.41926032581402906
0.46384551553249026
0.4759531360769104
0.44814436936802055
0.4243980776322374
0.4492944186221556
0.47499713804822397
0.4410195579853465
0.44524532706112785
0.47737131400143706
0.515498902077523
0.5092578504327727
0.5226496554889352
0.5481964331785589
0.605976955663967
0.6313007371124577
0.6496075194785934
0.6958951344764368
0.7767369215200202
0.8205822038369908
0.8472748885864745
0.8921394120466779
0.9554810434148159
1.0
0.9948537663691386
0.9733290276200325
0.9502366828915036
0.9075140418223736
0.8180933149864181
0.7343828322673762
0.6704007337352611
0.6318663230219357
0.5741335226497154
0.5088411932655215
0.5009525115227423
0.5222472981168156
0.48866418656819893
0.45993304008845304
0.46935914333695605
0.49426978017010487
0.49427123266318074
0.47161956276096895
0.47447855287785884
0.49254957337175453
0.4915451486220852
0.4638274951715249
0.46795859992520333
0.4897580415013209
0.49918185465635173
0.4804596851345937
0.47326512161054407
0.48792692084137484
0.5070201679911233
0.46992691406189124
0.4589867833534965
0.4730823540849521
0.47739464060928916
0.46414202105587987
0.43369328811807256
0.4239376708867065
0.454574792986625
0.4228315812361158
0.4027408627640449
0.40532518884822366
0.4293716843585612
0.4139184670000624
0.3983930708193817
0.3932262923066001
0.4229990463940651
0.42770696152306253
0.3856965094962317
0.36899095387517095
0.3953346388399286
0.42758031495934185
0.3878293474023809
0.37417594682437144
0.40616607171295654
0.42022194270674074
0.3948986656198127
0.3835947891132339
0.39687105240226234
0.4124618404269153
0.39580658757463
0.3778390367004181
0.3802980896506411
0.4105047302491621
0.4039348521690904
0.3826777859053746
0.39636268587179957
0.427650127659
0.4108141491116287
0.39694428572410134
0.3883321114214093
0.4242719524003847
0.41476104252624346
0.37424997327627346
0.37833353262795866
0.4132108177146276
0.4262099579551637
0.39963347535314914
0.3907477907201985
0.4002212355200873
0.4073401663907913
0.39929667981098166
0.38686295986604224
0.4139654325558184
0.4273314694864448
0.4067958781740099
0.38774339394842255
0.4120225154347259
0.4120101802358258
0.4050047874261214
0.3878342737442459
0.3978171356442785
0.41907882905662824
0.42973020017664815
0.4048457780599364
0.39947049537943885
0.4526877653562094
0.49952692252616604
0.5080491120670703
0.5201492391139333
0.5612111353696698
0.6330305828913737
0.6322461181093596
0.5933229161696026
0.5839097689489001
0.5730914530248867
0.537483138571753
0.46494888691524705
0.4114024998232617
0.38635520586052674
0.35824721326249875
0.33780065095225204
0.33786873939540374
0.34620794743285277
0.3387832056644498
0.32942731077363213
0.33722998414968963
0.35391147448397914
0.3504516653578379
0.34787571912908066
0.34033524004079385
0.3679739638071992
0.3990317340150675
0.413245331108146
0.4218567737693755
0.645141708736789
1.0
1.0
1.0
1.0
0.17065164617537998
0.0
0.050050865677695275
0.2011014168696792
0.2800137310460169
0.376591431592357
0.3773872948875624
0.339225012121606
0.37668755645160684
0.39083272328938967
0.3766132290696264
0.37593327738098337
0.4012276867671445
0.39650684801937436
0.3763278449851444
0.37388597885745006
0.4004756078698997
0.41111344344769973
0.39257301519417637
0.39360355156013005
0.4150639779363183
0.4410282520324296
0.4268939540029396
0.42005226397643847
0.4394488331244496
0.47522385405744877
0.48397292422089616
0.47051005896767173
0.5076484930462657
0.5597295375637462
0.60716521042735
0.6171091630918453
0.6656759605718806
0.7471564980048255
0.7808141238059958
0.7973403791334395
0.8310885286863268
0.8706405233101335
0.8816496500754816
0.8392321891253882
0.7965464375672131
0.7615719298299533
0.7080285458326319
0.6314853549979178
0.5586145234886992
0.5176436770078416
0.5045371202122637
0.4657170346942253
0.4369072395531637
0.4598499532314122
0.4687479153172699
0.4326350809944053
0.42147063464494705
0.4297403120891615
0.4446343945292515
0.4400518193463777
0.4133616187131448
0.41576675147221
0.4584033553660192
0.45968828819956437
0.4314330142638596
0.4437999148841981
0.4822727740907383
0.48443514465367776
0.46131895284109614
0.45458406579550176
0.4767554341012968
0.4740912382472445
0.45751971652378104
0.45616854490913966
0.46532185815661686
0.476206886101007
0.46218054757133215
0.4370678829330436
0.44930446158559845
0.4604380655675423
0.4385830150186182
0.42665925357061
0.4241649504193409
0.4386602893484537
0.4259301612885908
0.41397781009744794
0.42681740611856955
0.43547975545442474
0.424816205098534
0.398387124513328
0.4135316390036232
0.42657319775462244
0.4272865916823643
0.4107227046054625
0.4015122390070804
0.42070870341261185
0.43102965758509504
0.39900589455938773
0.4033159094224713
0.4253081638571109
0.43907253556451
0.4165611962939475
0.4062159874929806
0.4119232626013443
0.4301541451297335
0.40294112768253465
0.4007884722480304
0.4236444891569082
0.4382226996410349
0.42564063331803237
0.4061364970698059
0.4064550332312873
0.43766515138302087
0.4360894136856026
0.4210499356647185
0.41814725660944585
0.43854889736754765
0.442115107450753
0.42703387063848897
0.4208291083848527
0.43207086650697224
0.45147870938999085
0.4325763585496105
0.44167321692842876
0.49075128515544597
0.5352004619513768
0.5342093271782082
0.5544988713873834
0.6294575496113415
0.6425377015360557
0.6038414212337366
0.5718829339466382
0.5866419588387002
0.540117833522278
0.44431419293438806
0.4039785622269007
0.3972513818597255
0.39089610583922435
0.39276149885407824
0.3657541994604984
0.3645067049778136
0.37411791311747666
0.3776727208240812
0.3652179791009759
0.3774379305571175
0.4040435895870339
0.41192393509558045
0.39899837596597165
0.4033853232784993
0.44565568342646056
0.4771681681324257
0.6021060821795489
1.0
1.0
1.0
1.0
0.05235302743354486
0.0
0.08822027489703607
0.26211570749074214
0.31144839631830684
0.38390018160474526
0.4150751894096726
0.40599957560991407
0.3877668894038114
0.38972335968857474
0.4219602303408239
0.42094743440815974
0.4008868376427192
0.39104419955644854
0.4132325026882528
0.4305106524457741
0.4045473329608062
0.395212295391598
0.41902000136560735
0.4280793423552721
0.4209674731161961
0.40773173466905943
0.4409904883761365
0.4641544551811857
0.4658485949667536
0.46392592647394587
0.4905858828480418
0.5270087817739421
0.5525550166231352
0.5606095697317637
0.6111875476922146
0.6480004096892367
0.6983549561414535
0.6956809000365716
0.7417496400406545
0.795078986941242
0.8288878482943115
0.819854834198618
0.8194166375355966
0.8197396148686543
0.7969901254828976
0.7305717106054388
0.6633180026608356
0.6255387667350537
0.5802482870950503
0.5376836883415617
0.4996665310518775
0.48356230606297324
0.4887935095643983
0.46248031312065463
0.4314891502174154
0.45328163136645233
0.4758406790155448
0.46087082444548166
0.4344953849180956
0.4453723344121242
0.469294730351218
0.4708201539559068
0.43919354390868726
0.44679993334444423
0.4780672268986376
0.48354012424573034
0.4656514936229962
0.47088644187820894
0.48997129219321733
0.5002083667920574
0.48599975210508795
0.46589656260619405
0.49201480737017933
0.48459003649876947
0.46407576795141303
0.4475623145231206
0.4620731513664129
0.4760103021349463
0.46631004890867234
0.4427730305130681
0.44292762259103063
0.46001828143981427
0.4512700351135934
0.42090860842771016
0.4211367068336441
0.4280847268354889
0.4280373616961273
0.41386505963827025
0.40793910126363164
0.4154331643810324
0.4092802480353356
0.3947208872090617
0.3853035740877174
0.3924458456926989
0.4192717094371609
0.401740577721899
0.3844526468374159
0.39703813839430574
0.40708374125979424
0.39513865156239303
0.38266033649709585
0.3951802687505907
0.40978617034347814
0.403546720685897
0.38126189699286445
0.3786048419868265
0.41740844099937435
0.4079077708275126
0.39476581884987966
0.3988251268690169
0.42240336791534283
0.41678449360428793
0.40063056427559385
0.40346927668848487
0.4185267521467838
0.4227050423322609
0.39470066317966024
0.3861505308768873
0.4185778609842944
0.42359464999654195
0.4127428285404068
0.39819121591209095
0.422658628568714
0.4225775236062221
0.4044481501093823
0.4053071901873643
0.41368529987042146
0.42968061407438185
0.4266997516157579
0.40107962717898105
0.40122113962270306
0.4291425559479093
0.42371345576144465
0.4062906220186571
0.41492367030780997
0.43294201744980826
0.4438586972849781
0.4476081496051556
0.46742589890095854
0.5274503734816567
0.5401062360587368
0.5561696365133895
0.5864489467074285
0.6094862060107796
0.58954936332192
0.5554371853877141
0.5237309257557536
0.5054338619606834
0.49236295666533003
0.4153091012067184
0.38283069674932724
0.3636181882592952
0.3796007752912466
0.3681566033757101
0.3494263762235451
0.358423153148541
0.3759527245507914
0.37318023115036103
0.35617709983959306
0.36978418656492984
0.38260636127601744
0.3859071945069023
0.3967818547993277
0.39272113901879013
0.44882733641006006
0.4874680892872368
0.7012744002452733
1.0
1.0
1.0
1.0
0.15410077799210514
0.0
0.3008214011906638
0.36157012236043606
0.320395212077508
0.379428823377786
0.40875573526079234
0.3901951816145962
0.37229242575868865
0.3866872199281483
0.40846476632878925
0.40065873095786425
0.38277159258071813
0.3740839988760009
0.3955652829851669
0.4029556303402845
0.3866257690493873
0.3882424738818842
0.4080398102494134
0.42313382640781916
0.412892315229032
0.40933768897029266
0.42893462133998417
0.43731192769433036
0.4439046122913483
0.43763522709097613
0.4712257520994549
0.504439678099065
0.5066339589577356
0.516890408768248
0.5583632961324316
0.6037184681695469
0.6356095877304586
0.6513714513445261
0.6975896507153727
0.7459564023307367
0.7745376486399009
0.7905851538910481
0.804825451864677
0.8278281315402649
0.8094580834750061
0.7562778677641131
0.6900633177128153
0.6650397901104006
0.608720096917536
0.5318122446905849
0.49625694362064754
0.49080117282720626
0.4816618153223837
0.4510883521245373
0.4342671153435159
0.447403730639262
0.456938554353457
0.43998124537623406
0.41809568941898867
0.4282311601095934
0.44568385329363247
0.44309041756194223
0.4317885849427415
0.4302552671897756
0.45732662669887675
0.45189346614255427
0.4424909108338402
0.44047227053116256
0.4620688876393656
0.45343255287418094
0.4403523980684554
0.42673206069904657
0.4476389062694207
0.4582651751821162
0.42646917024498326
0.419085885790982
0.4323039441944556
0.44720531943886216
0.43552157416667947
0.41505950556422483
0.4229677638561304
0.43564489898774433
0.41656912186066286
0.39601537138695625
0.40250739620757203
0.40596044773160944
0.40090722086958464
0.3970657202002328
0.3883798911915486
0.40873815352151316
0.4102039976416413
0.3914431730619766
0.38425242017472655
0.4066626929436577
0.40064152197137054
0.37534942081486705
0.38144419425249376
0.39771359969530123
0.41895341560975385
0.40683246101193876
0.3973259656270442
0.40535047013803593
0.4053112832990138
0.4041204060265201
0.39016074799899425
0.40393542813817973
0.41643904698949685
0.4066496966442448
0.3915217348738591
0.40271864338604485
0.40961831232093965
0.40370786364091416
0.3929602275441174
0.4004519477510245
0.42074278918162217
0.4188975541264804
0.40598739692719327
0.4023927875486379
0.42452725882392145
0.4197168536092157
0.41404888737829654
0.3932045236557742
0.4157139564843212
0.4309228050319012
0.414997551978289
0.4048598594186673
0.4266526281200509
0.4359222637512928
0.426985521325293
0.41002179409692746
0.4167940444991213
0.43902609272689463
0.4309866714324574
0.4092127010112495
0.4221894832372925
0.43896363271916916
0.43961517111816606
0.42482167867355625
0.44425600666960496
0.49612713829311045
0.524906860075166
0.507304353629615
0.528941921427599
0.6053422625557736
0.6091953643871413
0.5562542063146447
0.5240297147997673
0.5385988779556233
0.5279872517828673
0.4640094074574955
0.3938268855151403
0.38840119560173686
0.3816642835130071
0.36850506998958865
0.354600123106941
0.3597298384663473
0.38305772037380814
0.37074966668710585
0.3399379166404192
0.3505750633047741
0.37557777909630713
0.383806040510991
0.3768365964680298
0.3915616362826614
0.4210600463704566
0.45765534941384195
0.5271696549204854
0.9138086612842116
1.0
1.0
1.0
0.8617153493137637
0.0
0.0030372707683365085
0.271029781229969
0.2960806419702811
0.36424206048996943
0.4037113675294777
0.3818518134303548
0.3751499237659601
0.3906049361877519
0.4078887666840094
0.39275477255526275
0.37736532536815526
0.3915640377755073
0.4109825920938329
0.4134751024036465
0.3930413650840544
0.3880664872019078
0.40312621872395615
0.4294670308008103
0.4035583467776444
0.4085318099758111
0.43722872701078075
0.4509843460020254
0.4466079518074351
0.45000188767732724
0.46908401651289006
0.5078474631256875
0.5140288154301622
0.5279310205944923
0.5812956894625201
0.6190085796808821
0.6506252854934692
0.6753710979129062
0.7136491014632808
0.7636151674026317
0.7900647988340863
0.8002783446737227
0.8195796072605587
0.8310764657812652
0.8042355431257411
0.7518213290850213
0.6948548871701302
0.6573014010076378
0.6139508563125615
0.5540521161877809
0.5188350510824364
0.5152113571026529
0.500403667898179
0.46914302072340347
0.45220902555456843
0.4673451131450162
0.4752150627443304
0.44842909814354615
0.43383649232602217
0.44405818351689563
0.45754848651570174
0.43804155126067723
0.43476100741681406
0.46143659656907393
0.4763948751527233
0.4773921535795901
0.4665883230080792
0.46210688634207403
0.482709123192253
0.4851281003080792
0.4663771313953088
0.4639622588367998
0.49085429469013164
0.49185636735240534
0.4652675345035175
0.456868378440553
0.4757115128280045
0.4732813314142502
0.4509241887918895
0.4394981031482219
0.4586242362589525
0.468735375465369
0.44067036904918505
0.41315267702360614
0.4457541766095095
0.4590170847125362
0.44272467651970304
0.4276248780255645
0.4392901098202591
0.4607140163479144
0.43194641509525367
0.41776347850541373
0.42337477070006474
0.44290173136096483
0.44369148764520405
0.4172670655392049
0.4158056208565081
0.43939445035830377
0.44509533286343705
0.43025364499819185
0.420754277632254
0.44300181457059695
0.4540056539652829
0.429862073568614
0.41768403794997305
0.4338768314171384
0.44815904445663046
0.44488106899257723
0.41952465729789423
0.44309900486607773
0.45256121307010133
0.4480970783513302
0.42483642147067446
0.43168561002164285
0.4424188288615668
0.4548269734594796
0.4459445093658272
0.4354011094713444
0.45673577144786853
0.4643499284466386
0.43726707544749494
0.4471462539941303
0.46858912652486107
0.46788658136640143
0.46709024630545215
0.4719661830753207
0.5301107465598748
0.5620336225090761
0.5514927512620916
0.6098584683187036
0.6603415472402696
0.6543674775269848
0.6185018775362028
0.5956169816114765
0.5975426896951075
0.5526066254829994
0.4624864135631822
0.4425629062200727
0.43319035965782887
0.44089077969229085
0.4377779926167752
0.42569623465300965
0.4179135165686382
0.4521892999401998
0.431334074674269
0.42087007026913936
0.42634149272460126
0.45236114993793575
0.4563815925312443
0.4440078432297042
0.43811491623102067
0.4837071252151762
0.5135100898401829
0.5050504484236658
0.5532972473862627
0.9295880690206308
1.0
1.0
1.0
1.0
0.0
0.0
0.22020508268428612
0.3359648183334295
0.4292422143819417
0.47226867423225405
0.44405998146441494
0.4367702605193429
0.4783402664691535
0.4708893936171677
0.45886759869915705
0.4605744441714328
0.4841249611181154
0.4812496921652545
0.46613700833781946
0.45265245249278985
0.48179144149172226
0.4899328499151577
0.4729422530943598
0.4647881314452471
0.4780183129944409
0.48778436207594666
0.48948934957545615
0.4893671025530031
0.5130967597090533
0.5514041350660226
0.5494342024960657
0.5529715413838243
0.57971469586599
0.6243449900862
0.641045958907672
0.6528010625033897
0.6797126012537028
0.7381730428627155
0.7668557374403913
0.7707124447414749
0.8004573279132089
0.8434159166782662
0.861704067755913
0.8467747424405527
0.8207028849885388
0.8092649445705333
0.7773225079707056
0.7151980246507657
0.6684648842654343
0.6273863449778527
0.6131125306306654
0.589717974612857
0.5535730147621309
0.5574587582380371
0.5571545643179042
0.5448704132967326
0.523897828254185
0.5235868369863466
0.5378188178850369
0.5360832452423588
0.5229505698979579
0.5237762835541515
0.5395643297750508
0.5422279013453823
0.5344145451274962
0.5271473966695976
0.5543505741916303
0.5678154586552406
0.5551611790337045
0.5456143099661437
0.5635587342452149
0.5739121759224811
0.5642142375122526
0.5578892122789574
0.5643487353426172
0.5731073242001283
0.5557335951936018
0.5290766038576089
0.5361763730143716
0.5523263239461801
0.5453075330375051
0.5257932427445741
0.5273563239075648
0.5422446129867671
0.5314021199090578
0.5154012044054841
0.5034321490946306
0.5219285434816555
0.5234004558106845
0.5020903507907303
0.4946648464783925
0.5194400139605718
0.5250552831375244
0.501197898403405
0.4862427028675581
0.5038943952538106
0.5171518673954548
0.49295161842436236
0.48064755001495385
0.5008661218366426
0.523284106759784
0.5086388507002304
0.48265408258910236
0.4892111968146987
0.5099936928401093
0.49789258621923826
0.4858615376353332
0.4863197613991014
0.5087177151655947
0.5102385327794995
0.4925638978558558
0.47930358515387006
0.5025377962995498
0.5128374120880479
0.5009071561102109
0.49243403500836136
0.5144064426084918
0.5158861654444249
0.4971235681888677
0.481949154667672
0.5110507375069469
0.5144457939609987
0.49369066116736426
0.48578660066394486
0.5107921237959194
0.5187607367136488
0.5088505626597172
0.4824725627110933
0.48995544162508703
0.5225572735815871
0.5255517643569333
0.49743261726345606
0.49706546640481897
0.5172205402926745
0.5230121922416352
0.5003298401841548
0.5008331883321889
0.5227626022403415
0.536549393119258
0.5327486281972534
0.5601570869861605
0.6157807010911539
0.6229543004791814
0.6125487581042487
0.6588218715114319
0.6886956591407983
0.6776573005488709
0.6414159490691873
0.615984271448862
0.6186921643113991
0.6004629230781482
0.5354868437709975
0.4775153095194521
0.4659870955572926
0.4868283378701336
0.4870725452728909
0.4588936170789131
0.46306317528049534
0.4903318322328968
0.4872048641456366
0.47145324300547964
0.46069713142851965
0.4863189071276014
0.5071172273446047
0.4943821237710818
0.5045952145182108
0.5496245574099609
0.5822598591542547
0.7480375430515677
1.0
1.0
1.0
1.0
0.4736534155930753
0.0
0.3299587861648103
0.46706426552485725
0.4133629428337294
0.47626115103132516
0.517429083182552
0.49669790224393945
0.4753314878244842
0.4933659887253664
0.5135385865798053
0.5069829607939107
0.49456679823514893
0.4924011481300751
0.5030246951870903
0.5134879553488576
0.4949682178098662
0.48130472105662064
0.5100496239381066
0.5217173844698368
0.4970821197768937
0.4892166628165079
0.5112436996843702
0.5412031051999103
0.5381538766141151
0.5280531319745052
0.5467523302899258
0.5894272579759595
0.5998540078761209
0.5984560310419595
0.6410705007175648
0.6843557145414539
0.7140117433793272
0.7311266711472075
0.768380915974755
0.8324159692815076
0.8623374455030213
0.8676837534051755
0.8862586660645112
0.9113030089762131
0.904394439692928
0.8458680535498507
0.792632722475316
0.7632447456821858
0.718760409765537
0.647604770896448
0.5977583166963398
0.5911880033369817
0.5878617289860073
0.5597542838993254
0.5315384407575342
0.5400699140768854
0.5630487641853605
0.5498736385417514
0.5293831213021419
0.5272790766676954
0.5491871916846596
0.5504439521006252
0.5243759749428214
0.5404650157594946
0.5558956397630147
0.5634199295535336
0.5315977567542699
0.5266432750939476
0.5616410839555424
0.5616280698469144
0.5363903894924249
0.5155880116793287
0.5548766676663076
0.5620685666128932
0.5361510151644608
0.525740304052773
0.5232484216767677
0.5374999631992079
0.5296616307879434
0.5079994049138448
0.5130313752935088
0.5408957134066814
0.5204400789828204
0.5006608043830931
0.5031233757854112
0.5158406990031607
0.503103722955354
0.4869648016945736
0.48532708947232955
0.5130875101278483
0.5146431176687719
0.49805909642125357
0.4875208606644873
0.5040412283015697
0.515135502493345
0.4950660624939771
0.4637703553120118
0.4914063757058453
0.5015079141354988
0.4848304803895389
0.47893917459719504
0.4891637062955912
0.49763122070874133
0.48958840916878543
0.47186592189667537
0.4867658466897612
0.5060049189825426
0.4966884844743597
0.4780287652017095
0.489868521006661
0.5050428620478393
0.5022322613751212
0.48497463933112883
0.4840486396268595
0.5056789528194572
0.5143500512516779
0.49702182992940697
0.48227273431570356
0.5093011783465738
0.5130637153518351
0.5038725302985791
0.4867355505317866
0.5036846860578867
0.5204882973904363
0.501914575796859
0.4884093363088359
0.500021392571984
0.5195470777838357
0.503473330557307
0.4847628242622856
0.5020352647345804
0.5273219352204839
0.5114329356531021
0.49128046306762585
0.49455436465436475
0.5248540042668689
0.5174700444449647
0.5007712991741033
0.511630434645784
0.5639467484594544
0.6180484154396186
0.605331132497581
0.6074487356751919
0.6756660614241973
0.7155969435736533
0.6847500696871995
0.6424750290968515
0.646934234329015
0.649705721827544
0.5928843382132452
0.517696172074699
0.4976984219750137
0.48801552775666535
0.45874784042561406
0.42145616795658236
0.4476894728617083
0.4536252829231987
0.4457624622682002
0.43690849263487735
0.4543850660012084
0.4685299018382613
0.47322791755423205
0.44368454063511226
0.458634114353374
0.4864566391478261
0.5155736796996938
0.5432047386727955
0.7529467288043641
1.0
1.0
1.0
1.0
0.1597775122172774
0.0
0.28295806275159185
0.3195685395424809
0.3579056601749938
0.4606508305320694
0.4660723193951375
0.4219146092941374
0.4469963687515506
0.4706431338677895
0.47600236164250564
0.44278328842778414
0.45628301798873905
0.4727980170558862
0.4728928275920068
0.45472557120263957
0.4573613514566349
0.47272345162171864
0.49703878832169124
0.4861963768114963
0.4740677660855773
0.49004412740823555
0.5095014502585045
0.5017400965455714
0.4990881183078228
0.5319421646858411
0.5576380919618285
0.5539331836410479
0.5671335771142698
0.5995088994581974
0.6516042765752825
0.6801045004985168
0.6831343997296733
0.7175544877855988
0.781219439279961
0.8198195200093016
0.8398683119808739
0.8543057270723636
0.8987309544009443
0.8940592645064216
0.8612647296455481
0.8181151308401162
0.7998350702319906
0.7658781170380966
0.6847365358217461
0.6213965534064816
0.6026565386500482
0.5811968797373197
0.5481174085224512
0.5216840592347639
0.5325817369854546
0.5305876731486039
0.5144920419038757
0.49725840689392636
0.5126408109484655
0.530519534818992
0.502034586970632
0.5004970996563717
0.5116722539147208
0.5344607713901375
0.5385869051112746
0.5255990812361102
0.5248945211631997
0.5455786151061057
0.5444225698445224
0.5372413167598149
0.5244097747201466
0.5365741221750551
0.557536671476915
0.5303933070569907
0.5157551987622185
0.5295728993263759
0.530940576856953
0.5094266166214168
0.5034467660598175
0.49915642679073213
0.5158225957832012
0.5057810671022656
0.4823239548880468
0.4929286464755271
0.515902766486789
0.504099410751901
0.4820769388228682
0.4759019530213803
0.4931590605224018
0.5086822338935706
0.4961097001079032
0.48261934566682774
0.4931897930841676
0.4912738922475787
0.48679563395637954
0.4772714398865944
0.4782701504529955
0.49868144690483424
0.48820615928176797
0.47256689046808253
0.49126204229376047
0.5067891616727499
0.4914521852614956
0.4706861315729074
0.4889276464511849
0.5048495380047326
0.48231430849654117
0.47606689306490335
0.5022704243049497
0.5102392593192496
0.5010372853546664
0.4890240339363584
0.49082908458931174
0.510768443206816
0.5081875255299793
0.47558758308336835
0.4864434838809631
0.5018596205886263
0.5099722566862471
0.4925150632650799
0.48784406984933504
0.5133425390021676
0.5523691067547501
0.5575349909178651
0.5656541581071002
0.5990027735599516
0.6715541926460675
0.6958599512314783
0.6667418528061368
0.6414808218888634
0.6728724671954772
0.6341567132249677
0.5364674767107984
0.49244970645804564
0.5153329286461228
0.4778638407771568
0.45150139063480965
0.45070068263798646
0.4810274409717768
0.47305749621128024
0.45324961770167277
0.4466349827769579
0.47717957596273913
0.48355283391738374
0.4851683571965957
0.4871278635854866
0.521404684828936
0.5443302752815906
0.537371411317098
0.59006295787118
1.0
1.0
1.0
1.0
0.9388447623179266
0.0
0.0
0.21359387799333854
0.30119609240285994
0.44180083220771715
0.5004315193472062
0.47929612134937366
0.4676592726414174
0.5087572095392896
0.5106555740680581
0.49779042438938736
0.48845003248820473
0.5119523491259375
0.5154352434680095
0.5013874215735028
0.5044512597056036
0.5181676646798905
0.5303069268917344
0.511581466315093
0.4949428167487492
0.5227626344897394
0.5407894402874742
0.5268217743611503
0.5178153937571103
0.5406550514028174
0.5771624383069717
0.5829771820604813
0.5796707298551732
0.6022960159902346
0.6515583067546731
0.6770368709097817
0.6977359915288764
0.7329322466521768
0.7906221714373214
0.8129397029863995
0.8151205516864097
0.8488378697745915
0.8908475443574334
0.9069409105301158
0.8806791029800308
0.8495611358260753
0.8210328206351353
0.7821666203250528
0.7177291405572992
0.6525468174971216
0.6364824163161963
0.6292788855010504
0.5765963859915346
0.5587485957952527
0.571537213491821
0.5832334184637508
0.5534990073788286
0.5460600006473186
0.557735132798949
0.57714755886609
0.5733767581974198
0.5501299212066008
0.5553401473442137
0.5816629016426063
0.5905347918522251
0.5747097258791026
0.5676210203929863
0.597790585813789
0.6026080136569091
0.576468757101921
0.5766027452717906
0.6011253824903605
0.6162047369188486
0.5969407398855925
0.5751587984386396
0.5941514899251462
0.5909582023822149
0.5750682286903014
0.5598723045854663
0.566263589675737
0.5821273282145635
0.5723061434940055
0.5466895694357954
0.5489588219322555
0.5717181760830237
0.5506378641699166
0.5325758240191195
0.5337098843851538
0.5519344510434235
0.5406671816135259
0.5281107318450466
0.5214820947980991
0.5376083288754681
0.5397926708316195
0.5140893482585469
0.5087178298621339
0.5258205150045505
0.548214955582951
0.5219834006805654
0.504805461436726
0.5260347429618168
0.5435166714446338
0.5275396844942473
0.5080377724471778
0.5268144961922278
0.5355053850592558
0.5285527872515858
0.5110109301269143
0.5190669365034095
0.5367112628786546
0.5332208258372788
0.5234366344759139
0.515415898039205
0.5306244411936456
0.5385425298557039
0.517057041943843
0.5131040577595691
0.5463729469662721
0.5441003662284457
0.5244161446920056
0.5208326031105287
0.5475461089522197
0.5424398324120553
0.5275620042205326
0.5151752356428907
0.5340941457348825
0.5579430885546088
0.537411215679781
0.5289725210194253
0.535411410572165
0.5503327001514802
0.5377049551346772
0.5335976919483966
0.554939483043826
0.6067906159300083
0.6302234207223051
0.618464509394598
0.6494420912613613
0.721681951358644
0.7475671981633559
0.7186944708211018
0.6656052205119576
0.6665407871296779
0.65969027798589
0.5965352315788061
0.5105828901485763
0.5110543444483844
0.4828440288759805
0.4620352023199814
0.45666912652704283
0.4682390526009346
0.47880478209276356
0.4642659224989888
0.4413084282664337
0.46234123158313556
0.4877922588988164
0.4800810275920376
0.46216841163004974
0.4935630225017745
0.506606160000803
0.5394094643526326
0.5606591338727075
0.8265566764760024
1.0
1.0
1.0
1.0
0.09607542666752922
0.0
0.3884553917889489
0.406149736151978
0.42950895685559887
0.4959757895611852
0.4748206188872408
0.4377735025998697
0.47154018514875107
0.5027131138389506
0.47068501630891435
0.4325883291866156
0.4714741447518843
0.4870570390742076
0.4881661307123676
0.46782330467831246
0.46241935086379876
0.5014601719735695
0.5071549657763813
0.4890800250174997
0.49452750880374385
0.5210289396140597
0.5103227544151971
0.5185890742743287
0.5260752036730227
0.5521467319958814
0.5899603482499222
0.5857278124434601
0.608135963337217
0.653661478206485
0.7042561749195139
0.7315648115769287
0.7598918412731306
0.8055472422927433
0.8646846795719456
0.8789831431138662
0.9005300963848543
0.9394066850528573
0.988967839954566
0.9824903205451525
0.9343734872004863
0.9053041989582414
0.8660648775707152
0.8077396572922986
0.7324593548304231
0.6835686186262118
0.6540612347002878
0.6320738523439429
0.5795446024168756
0.5582096974869615
0.5757852374142709
0.5615854252346489
0.5376569210368205
0.528109058313148
0.5559953225912361
0.5589146720763585
0.5419539592041368
0.5122914011059672
0.5339638825171089
0.5670420364343494
0.552075551534766
0.5275292307130403
0.5496520451680026
0.570494314690918
0.5622872460817971
0.5417202553997009
0.5493021702045986
0.5729894569324777
0.5742422842803665
0.54017894563796
0.5338579178044258
0.5529410606030952
0.5506866412636353
0.5241047471118023
0.5072658122902387
0.5089513411804937
0.5297033857626001
0.5001383183401024
0.46961260283755857
0.5030977627554525
0.509116417527057
0.4918320778021573
0.4822474273819166
0.4950886813849043
0.5202612046624522
0.48653261310903895
0.4715135269901939
0.4811401599043966
0.49864632152535543
0.4938818156592412
0.46370846345188044
0.4741855023862719
0.4988513106598601
0.5042440766048849
0.47096119256401137
0.4701467465542515
0.4978665864802719
0.5029764187998856
0.48263748183462346
0.4640253046845612
0.4900576489058047
0.5096376945562694
0.4805192709807399
0.4722914683319444
0.49084931877606464
0.4904868579608638
0.49783220320821353
0.4744115355576062
0.4836057962627233
0.518638625898969
0.5084077320813924
0.4776593478556387
0.4980123161705309
0.5232948450577253
0.5168522928462795
0.46330757646198106
0.479053871648836
0.515289156495337
0.5122690229915327
0.47953821731957885
0.49646159283288505
0.5283916314789325
0.5270901494748285
0.5054380331751809
0.4823295581506123
0.508273298720863
0.5221374705574544
0.500122817157665
0.4813082474093906
0.504028491516012
0.5366815286099692
0.5205589598539369
0.49954286278793736
0.5183379161491497
0.5764040107208701
0.6019223497583952
0.6225715541867602
0.6406775783146138
0.6929889357989507
0.734362475220249
0.7303169208055064
0.6834824934253907
0.6769289917122533
0.6647326570407475
0.589426090557391
0.5112282474339389
0.4871402232837666
0.46544830333431503
0.4257184551904931
0.42791386308861623
0.44472002314170417
0.4412298735328994
0.4095657725829939
0.4105376517243783
0.45424438757757846
0.46540707445382656
0.4552608303125565
0.43712663040843996
0.4698736001658446
0.5047425480914864
0.5234719636296297
0.53400598859292
0.8714797124471915
1.0
1.0
1.0
0.6497361246462989
0.0
0.1061600891517589
0.3051385901182422
0.308115827740215
0.44495420476916203
0.4800222547165746
0.43925208433604934
0.42327104019219447
0.4634085862432875
0.48398143098743074
0.46232599111371364
0.4436943315696572
0.4590357625962094
0.4789715087508236
0.4612187806623188
0.43335527164051435
0.46269337206374067
0.49962226984979885
0.47885859976769807
0.4655726636538796
0.4752905409867452
0.5151738143923065
0.5016230047144635
0.49203864544137427
0.5055184680835583
0.5514199680416066
0.573863075309859
0.5837087285350169
0.6298442320010637
0.6892604247416743
0.7195924145857824
0.7525936492804373
0.7685214034126842
0.8549524398870367
0.9106842160713209
0.9289315808132764
0.9407895974807434
0.9982461089682519
1.0
0.9618856427749612
0.8975549987733903
0.8675211483230557
0.8260495126013601
0.7401687111006717
0.6457078043651087
0.6121043040470366
0.6090791895214438
0.5811021514101538
0.5306739442547129
0.5079806744572959
0.5345900090394424
0.5080540950330811
0.505543105947565
0.5018950585186475
0.5377101168159942
0.5524377925986672
0.5319588764421771
0.515012257674375
0.5360106971057178
0.553536573917827
0.5410656502414882
0.5260294251355287
0.5570223565037359
0.5937829119988516
0.5586757192835745
0.5533446303948972
0.5675963741942637
0.5826998794338272
0.5577462136557354
0.5275300288270771
0.5336212480641432
0.5530181882083667
0.5242158507851221
0.5236393454888395
0.512223017947083
0.5386349789279319
0.5369405761718057
0.492419473467183
0.48196799516570843
0.5160504855173351
0.518739609972926
0.5029669582105611
0.4915214788926998
0.4996390340525204
0.5166501107448062
0.48807165370237104
0.4694878340290978
0.4971576135008574
0.5142916748585427
0.4893615486876152
0.47637384947241934
0.4796595998117204
0.5213007003743958
0.516585704602579
0.4747510244466988
0.4791657371220722
0.49695740491486856
0.5058032653524746
0.46612237040092036
0.4541497412084918
0.5087076487713884
0.5230055922105461
0.48671673196538096
0.48129603998214676
0.5134161095286647
0.530185648601144
0.48854735063471527
0.4819835768131959
0.51892061215569
0.5238625859891772
0.4908789814882527
0.4847494051705108
0.4994585946285934
0.5352594730659312
0.5122240682578961
0.48423303498922765
0.49818801015804637
0.5425976398861143
0.5635884027380441
0.5653615185347524
0.6118031325248261
0.6799255191180061
0.6874856029039703
0.7504302285122769
0.8052610087428761
0.814173298445408
0.7745200257843097
0.7426088041177182
0.678397082821261
0.5968313961191223
0.5408803243414784
0.5008699442263169
0.4484107875242597
0.4751153451816331
0.4863894470519563
0.4551896526421344
0.41725617095424755
0.4596646106151673
0.49492747080251237
0.48129042168809627
0.46634775317599775
0.49560725261396116
0.5246588482212291
0.5255268744236605
0.5253375781095079
0.547333395322039
0.6180335803503528
0.8007473650553042
1.0
1.0
1.0
1.0
0.33273406877229006
0.0
0.0
0.26559128215586625
0.32481191002608956
0.4568819008960804
0.5188124759761885
0.5024224840020384
0.48742099122515087
0.4763935396740166
0.5219141449421724
0.5505363743251148
0.537905583543064
0.5181417720628227
0.5320448818381658
0.5393518695870057
0.5459672221259388
0.5166333693433331
0.5145377637927956
0.5543966899709202
0.5647045091511146
0.5181681387098694
0.5322054438407922
0.5883877670602808
0.6022668369691564
0.5792309210530584
0.591858785664316
0.6675539491821313
0.7105367948751676
0.7112360961672453
0.7345803259538755
0.8086298103659804
0.8850748781644542
0.8932161459342595
0.9303713743003659
1.0
1.0
1.0
1.0
1.0
1.0
1.0
1.0
1.0
0.9811695266505753
0.8999767129984683
0.8028372511196066
0.7371784519706439
0.7004106510786704
0.6883723333736311
0.6359732519051667
0.6184148351647406
0.6413218908437732
0.6369669550147256
0.6017207116717141
0.5887122712039943
0.6161198469644348
0.6371576999688153
0.624143200609851
0.5970773149933898
0.6148843338835934
0.6588950893060204
0.6448525023523046
0.6223246494567553
0.6391625601050503
0.6570588261824756
0.6535194883359481
0.6352793029305052
0.6355321218995198
0.6818952272808929
0.668333465715284
0.6290460907220444
0.6193328178599188
0.6416677601814244
0.6563616309461047
0.606179298251781
0.5821090100885394
0.6087390275483269
0.6281678466655608
0.5887676169921983
0.5450433849029073
0.5883272701420258
0.5859078140288263
0.5463245473597931
0.5301209066590922
0.5373511748673797
0.5767619333299858
0.5610995142056943
0.5136880466797552
0.5372576780295119
0.5606673193546357
0.5635548167339649
0.5311526260783934
0.5282935830006917
0.5653516277869598
0.5535707349492995
0.5179876277210316
0.5087728854527127
0.5519401950685379
0.5546203043760359
0.5343934775436157
0.5040910152144955
0.5381214339950267
0.5686780175633855
0.5291556190105472
0.5112925779205131
0.545740783945408
0.571033438687218
0.5327702424805056
0.5180891659761793
0.5240478242984155
0.5403768718902474
0.5445029133961002
0.49957349404611423
0.5287096192132033
0.5608143446430003
0.5299266466063604
0.5144374043135461
0.509110894113924
0.5608018375547404
0.5607622045859076
0.5143514679674493
0.5123738712089472
0.5590830491765393
0.5740288803500413
0.5432778733080074
0.5343081586120421
0.54992039909093
0.5817035169342814
0.5519801637093646
0.5171796404793804
0.5457345791855643
0.5777623894847411
0.5577250697799419
0.5264146327982899
0.5641459742778542
0.6525787249668682
0.7203724975705972
0.6975328588599513
0.7317056613309425
0.8642352624119578
0.8582567784697428
0.7931382315922112
0.7622741841613718
0.7836063072462898
0.7185938374397369
0.5940955495405589
0.5080306179290399
0.49856543576822726
0.48763699367027113
0.4573819231358603
0.4374164125765347
0.46432113611184606
0.49541411783006223
0.46233332895755497
0.4354244530403008
0.48201396944178915
0.49434245585899694
0.49408816582079673
0.4802923535685487
0.5251505781739833
0.6024205599229178
0.6448557476373635
0.7179586393681789
1.0
1.0
1.0
1.0
1.0
0.0
0.0
0.4392748979791472
0.3714188755309345
0.46937089770624996
0.5743804647535776
0.5287688692943242
0.47485710108437057
0.5352020654105589
0.5692322498295622
0.5397651006076619
0.513659157255808
0.5395817369644049
0.5609354134489457
0.5420219259220549
0.5126819334757704
0.5324025716011479
0.56723729644315
0.5525857245940835
0.5145452321554213
0.544082494693249
0.586325655577513
0.5866326395542883
0.5828718509763233
0.6064521168697394
0.6583797209918955
0.6931809747345516
0.6910229424847063
0.7199140876786858
0.802495300831462
0.8776370501009587
0.9090148961850506
0.959425880138426
1.0
1.0
1.0
1.0
1.0
1.0
1.0
1.0
1.0
1.0
0.9186669406840353
0.8024129741659596
0.7276743390796495
0.7166201154391498
0.689296690931039
0.6178805301845502
0.5928565592485237
0.6354243467508738
0.6250581311085875
0.5750588707617142
0.5680483522508785
0.5938636040296406
0.6126267919659492
0.5738636326740467
0.5654051140487324
0.6061614791192642
0.6419878585988373
0.6084622438279921
0.575681016840121
0.614150309473718
0.6374939654510777
0.6310456383153176
0.5790186128554363
0.5853421574100836
0.6555887905159808
0.6442745098825142
0.5608264618828405
0.5538540511162332
0.6075041550731586
0.581487818647964
0.5420737636454774
0.5391033459188451
0.5680848118408783
0.5893579461620299
0.5358187671558154
0.5111822008400135
0.5230986339272892
0.5502401347360462
0.5110546258184715
0.4709404944282383
0.4693197604941733
0.5203533096799571
0.4968571303195062
0.45581525655163607
0.4726498107271847
0.48110219371379503
0.48396844476673906
0.4400111940749703
0.46406650990499987
0.5017091683474771
0.48313720987878606
0.4293029945479406
0.4483919750555653
0.485868778131636
0.48094446176180305
0.43977618928024614
0.4386094647145963
0.48180504646050704
0.49515965722983796
0.4638308334968501
0.4429794839066924
0.4787338349695224
0.508638872042793
0.44249544545940045
0.4358240879749422
0.4676675017354108
0.5111357930528057
0.4729377700654931
0.4502707278357863
0.46688563419121304
0.5169883483282921
0.4796292837449134
0.4380574682752063
0.4632327236012088
0.5056201150884104
0.4908914948803288
0.4550865949187156
0.4544692993193328
0.5071328866947437
0.5025582512703821
0.44891294297558987
0.4693125616510539
0.49561963499991935
0.502852427081895
0.45625280163151516
0.4426940250514334
0.5032701348733897
0.5230993504994841
0.48044546659577636
0.4564977401863614
0.5132289976505519
0.5791031204283249
0.6306784193773465
0.6470162775160251
0.6905123435702392
0.8120756248532421
0.8506791915000864
0.8175438068393014
0.7528330922395355
0.7665280301441465
0.7578447721757768
0.6368215975312934
0.5253854271538174
0.48094221359146366
0.4646082136560735
0.37060598636331826
0.35148732173925323
0.3998227399227495
0.4004411816007548
0.3529681422809162
0.3616480488573643
0.38361205954982197
0.4388666505027265
0.41886652961314824
0.40705337947336284
0.452564410818569
0.510604488770803
0.5206746230374797
0.5392782662495894
0.7767259514608137
1.0
1.0
1.0
1.0
0.8453551907475235
0.0
0.0
0.1131633536273089
0.19615197700835693
0.3868143219704665
0.4503245862945904
0.4090963297672004
0.4334028628559844
0.4899860212382333
0.457471230359386
0.41206277322382423
0.4684149208536925
0.5218798589348934
0.4472045340155164
0.43708370875294467
0.48462171544508975
0.5052378774836386
0.5120624922643241
0.4701278466442199
0.4783440051557652
0.5458218381558881
0.5140692649178169
0.46089721591757316
0.5110081341744278
0.6178210052036336
0.6101930635888799
0.6129829796503775
0.6239725843402482
0.7228342935615674
0.7891255149057391
0.7932601932670835
0.8568989030707174
0.9638388354271011
1.0
1.0
1.0
1.0
1.0
1.0
1.0
1.0
1.0
1.0
0.9751922185195145
0.8993252389614602
0.8671808192336327
0.7368139512808354
0.6601373229901825
0.6146964040012508
0.6268718869168568
0.5877026537685625
0.5422085386964208
0.5215389415605415
0.5669963861361935
0.5780737048434625
0.5339478111802525
0.5173876540838074
0.572922748969968
0.5675690142667366
0.5575253114111552
0.5418077842962618
0.5685473851912347
0.6224391647131581
0.5961841499918883
0.555440272009806
0.6224945624809519
0.6409035407159287
0.5969512861529525
0.563172514422588
0.5602603317461075
0.6075022797593062
0.5866240049044056
0.530439437007528
0.5309411681942561
0.5733845125704856
0.5461910406655601
0.5125086786658846
0.5032402252107803
0.5221649630001226
0.5396505074960256
0.4929058700845682
0.4684169253044151
0.5166176164273633
0.5161371580285153
0.48064122772859286
0.46400646989409633
0.4725593434076383
0.49119793395005873
0.4612606294290261
0.4384822916824686
0.4713245232175275
0.4855477063498282
0.486522284513702
0.4262776623329885
0.445691397897552
0.5062421253000722
0.4592034637600425
0.4070677666076218
0.45727007815101856
0.4937824383594851
0.4963004679047288
0.4698635095156636
0.46839899787236083
0.5081122825794039
0.5052411685333755
0.4687838545990302
0.4578921104484236
0.5056271063955718
0.49274835724635546
0.4769414709690434
0.47148210411321456
0.49327345368669506
0.5257406799340005
0.4714319182411922
0.44818761015476494
0.477855440802189
0.5193908672688491
0.49047337777321676
0.47018722164319476
0.4842875948134215
0.5322222827941153
0.500849566857432
0.4555820997389743
0.48203834247560257
0.5491086541136173
0.5356190349965532
0.49390512553562155
0.5437969045897366
0.6428426635500245
0.7138356351001331
0.6660864230889866
0.6912346930439718
0.8840231135129588
0.9278237763466255
0.8223977644414159
0.7625095951002622
0.792135599147155
0.7387052511919672
0.5646406772943597
0.45916478253492893
0.44671513239164173
0.4880935420742875
0.44394058722339313
0.39768214470069924
0.4086054770805319
0.4598679304552335
0.4497965328611794
0.3977201418229238
0.4291205069110893
0.47954674889532695
0.49625638811450995
0.46780459949379843
0.48825784207642364
0.5662761472518362
0.6171734192499948
0.6761556541906701
1.0
1.0
1.0
1.0
1.0
0.0
0.0
0.1789391332666704
0.2821502913254954
0.4920298361120131
0.5467746367584494
0.48947415619296086
0.45919696456851194
0.5022196564446867
0.5164535933548307
0.520597939623777
0.4955715276656004
0.5080716269181997
0.5800675469499715
0.5607910452207958
0.5387793709930839
0.5385902337302626
0.5784431493327805
0.6040115418255974
0.5949236060933728
0.5430525738454642
0.6156368040265866
0.6820523622246718
0.6584791508174623
0.6524011611521676
0.7187108837946983
0.7905390410473514
0.7926889725306097
0.8070998351452591
0.90844810224655
0.9758127741555043
1.0
1.0
1.0
1.0
1.0
1.0
1.0
1.0
1.0
1.0
1.0
1.0
0.9951216908434304
0.8569555069969933
0.7676041067703562
0.7606386259392799
0.73286145048198
0.6782216378110141
0.6277125324531333
0.6556034065971186
0.6788349703977291
0.6557379171973867
0.6042823025885383
0.6284517202657647
0.6606171445458843
0.6503396688239927
0.6517829539506286
0.6470140370072952
0.6792219349044433
0.6897411702108646
0.6575210834346141
0.6361744285972941
0.7054965882549998
0.6920438334542065
0.6588059174187519
0.6404990011838851
0.6709614608079572
0.6785417560774888
0.6589309413024049
0.6423419431603655
0.6631616666839031
0.6636359614896388
0.628782208758019
0.5945618490851639
0.6118998338102521
0.6332018767494179
0.5915934164489396
0.5551734008524543
0.5832289141237443
0.6062749052880625
0.5792714778599486
0.5268133799472287
0.5138737350718798
0.5641486309666794
0.5485014472175633
0.5285327815605421
0.5301360414979112
0.5800052049043041
0.5695421211419436
0.5195891018678358
0.5225065311685848
0.5477425634282438
0.5274689498404469
0.5004108951391478
0.5007250207895352
0.5492659996864029
0.5540654444260177
0.5315885129766762
0.5135960522711799
0.520109687232757
0.5785290156764822
0.5334974621681885
0.5084519341326339
0.5395876289735012
0.5552663076691459
0.5139073937599511
0.5151518129971926
0.520540301797391
0.5441730995301401
0.5451246913416461
0.5036793394760746
0.5300897392156076
0.5730917414967264
0.5726557052287593
0.5495529537529154
0.5425884460664846
0.5731602461375507
0.5753068852832663
0.5546252294546907
0.522555737202405
0.5652182168517573
0.5997380283179881
0.5593941305743021
0.5160596678514318
0.5618179403327902
0.6153902759779001
0.5828061056836031
0.547977235113874
0.5673750164686944
0.6131998915548479
0.601286526883046
0.565562423206641
0.5605705900929696
0.6207526461346224
0.6165800528785501
0.6053119791042596
0.676603067253423
0.791656671796173
0.8089067824205255
0.8034101384041984
0.9047352532107297
0.9401517134859934
0.9016770246552671
0.8265841932313693
0.7788062379867184
0.7668029132872629
0.689481237915623
0.5699298963569122
0.5062427862088735
0.49673960439347453
0.5174050436319317
0.5066972021767537
0.4902582044536047
0.5000036461769406
0.5317316018058861
0.500490181346707
0.4770624350305094
0.48583529865868824
0.5396969047738711
0.572789886748272
0.5575371352906183
0.5802638159872398
0.6768079814167217
0.8729650614007097
1.0
1.0
1.0
1.0
1.0
0.0
0.0
0.4534151273501519
0.37251419933114105
0.4236550242019641
0.5432212485184988
0.5718483511422813
0.5316955578520135
0.5090329046364058
0.5275882964891825
0.5856246882735519
0.5690268609491501
0.5186307381470916
0.5227282634416731
0.5599723263839799
0.5458463549679993
0.5294804757151015
0.5249023346654955
0.5832746765712769
0.5796254319548646
0.558582063994433
0.5686898223197402
0.6163456515468639
0.6217529899784029
0.6032959675579173
0.5981525908091233
0.6630610647245694
0.7291837206011227
0.7380408715061881
0.7314883396034368
0.8138614962502416
0.9035572674109957
0.9590432648927608
0.9579623876948439
1.0
1.0
1.0
1.0
1.0
1.0
1.0
1.0
1.0
1.0
0.9928690190185401
0.8819834905552988
0.7612005662287203
0.7461465889461365
0.7223773293822231
0.6747527227551535
0.6396023909582116
0.6462106479793419
0.6513692936442566
0.6139638727305514
0.5816985063608695
0.6015562281792628
0.6334192237014603
0.6183183072872771
0.5800396322816956
0.600350276349016
0.6509205137575937
0.6534063939434341
0.615460912167905
0.6115614658907398
0.656379255242616
0.6511905116520282
0.6215939691432557
0.6132517577390092
0.6488010915871482
0.6615952680348499
0.6172725375393349
0.5895269456651311
0.6282651074428937
0.6302883917376244
0.5977511891543006
0.5623232121077344
0.5726807709386876
0.606891150955498
0.5751118528821441
0.5389607441107461
0.5410923946886274
0.5679503703706873
0.5481738621949747
0.5215367797991521
0.5285857218841332
0.5740015363525127
0.5504438882846554
0.5055238063329218
0.5232174569710016
0.5471909255261951
0.5609739366399218
0.5238081313738084
0.5182161121437101
0.5388602592591744
0.5435296575313368
0.5122942134735241
0.4959038941052965
0.5071448322928901
0.5459582137316128
0.4974289937638009
0.4847315524214708
0.5139676089432327
0.557044983441179
0.521542997382637
0.4970047480186546
0.5187349599842477
0.5353644125928902
0.5066619495607194
0.485136878296127
0.4941632049445747
0.5232288679679121
0.5191346891484125
0.476635999762178
0.4800865869596267
0.53770846588793
0.5439739069233781
0.48307098397496145
0.4854320621361672
0.5273925694830877
0.5356359934569881
0.48414344582011937
0.4950719599140645
0.5310276956309209
0.5409847755273117
0.5281723020173361
0.49619503726819847
0.5088643672286821
0.5639826999597494
0.5553743845427229
0.5133408057292106
0.5482127443069749
0.5841960369505621
0.5836366519371056
0.6031359674097339
0.6676102932465924
0.7520233767396942
0.7277578451598995
0.7776917301012037
0.8728544439245507
0.8772213457566348
0.7939269525142366
0.7726646857697141
0.7530755609255546
0.6750683236467332
0.5496492017739042
0.49178658539081044
0.4404306929396397
0.4887797339431219
0.5044026423410422
0.4513808088281648
0.4753262137630771
0.49362497085638674
0.5154801094196653
0.5053896541310158
0.4786222073947828
0.5174020070259229
0.5415638242315437
0.5595852195616723
0.5300346697174885
0.5961806448338919
0.6851361377905141
1.0
1.0
1.0
1.0
1.0
0.0
0.0
0.1589314849688031
0.3189738218313293
0.4546460599098895
0.5414569680541245
0.5387591228360786
0.5471462224978676
0.5317267579892196
0.5012020787057672
0.5416148456083137
0.5775876735077926
0.5617655359047253
0.5331091748116324
0.5507170876608263
0.5783605912985037
0.5471138691064987
0.5426068456416893
0.5520623527005869
0.5908059442288693
0.5889505746357065
0.5525294016643485
0.5675373718658246
0.6163342524647624
0.6439447397168262
0.6567966579855359
0.6520970918776663
0.735319948640987
0.8148475862441998
0.8200624630857055
0.8735383723921213
0.9634251839315532
1.0
1.0
1.0
1.0
1.0
1.0
1.0
1.0
1.0
1.0
0.9912709516023657
0.9083760150843847
0.8573319477425253
0.7310107789049258
0.6656249459259909
0.6304195937754468
0.6511528731163365
0.6271116545884181
0.568717146550697
0.5635812136288981
0.6045906821106108
0.6208754844354443
0.5714522831467856
0.5441991084790603
0.5774837854970148
0.6176665442292192
0.5969903750378582
0.5712237445604063
0.6261331678565478
0.6529613245620691
0.6455558110159834
0.6160640030274693
0.6406900857643802
0.669882700558311
0.6644549434394017
0.6309428739016758
0.645214741147396
0.6624775047750984
0.6680178985011936
0.6118024884932775
0.6066868425589913
0.6393352906294272
0.6284254879569032
0.569826847021113
0.565932133636059
0.5774501948742363
0.5856797123732373
0.5741435206886784
0.515037891428898
0.5377728124687968
0.5876644544331102
0.5410032614132584
0.5253005239997119
0.5377843624541454
0.592149419818828
0.5889164365865361
0.5061817689561224
0.5193232154411908
0.5974154635180456
0.5608192158136401
0.5288180707699387
0.5240440268383921
0.5625765016714269
0.5806216704466258
0.5520568615991325
0.5360435695090702
0.5710030383442526
0.5725300590715181
0.5490822054508546
0.5426805156318557
0.5719932703321258
0.5865347580683677
0.5488742509085919
0.5385849951461998
0.5844850283667001
0.6013906029483813
0.5852765861869828
0.5556797878576698
0.5896049858194912
0.6312404169234733
0.6617018753379058
0.6949270901421154
0.7391068040304078
0.7909595332481564
0.8473834820848882
0.8552530171800067
0.8089046129779595
0.8091358336403065
0.8081060217325771
0.7674264025407933
0.6224594390703372
0.5793548699282293
0.5810710063723132
0.5125580327748821
0.4876202267875181
0.5250665127888225
0.5345975828014945
0.513163127743407
0.478143500452653
0.525034595228502
0.5597203047973118
0.5262497867393507
0.5400841364715842
0.5628084543760129
0.6262904813629917
0.6244303003407599
0.6241080179516333
0.8432120622659489
1.0
1.0
1.0
1.0
0.7063189575106653
0.0
0.0
0.23596747167831045
0.3433407623501881
0.5450775711092775
0.5878464473460853
0.5252598434768102
0.5408392908697321
0.5906088258836893
0.5701577267285689
0.5496763609259215
0.5548844340653527
0.6073524511137516
0.5812597158949754
0.5467490490215643
0.5813733974263503
0.603185382040872
0.5985840942689853
0.5644976335042411
0.5931740584780364
0.631060134553916
0.618194570493229
0.5735844617639461
0.6221535887567391
0.6744841267730625
0.6862378191689633
0.68194697395245
0.7125038520886536
0.785486959570011
0.8308313738521068
0.8244794273642071
0.8784605230926619
0.9513030999741978
1.0
1.0
1.0
1.0
1.0
1.0
1.0
1.0
1.0
1.0
1.0
0.9433650854755211
0.8952155843458754
0.8055196141510338
0.7154739402576146
0.6799703493586432
0.6853383075222653
0.6836050266403737
0.6256223666128471
0.6029494431016976
0.6347589552230966
0.6153525333954569
0.597500922377878
0.6046753585711419
0.6275048625930376
0.6514706879163683
0.6265874255472921
0.5868039485265661
0.6228658229544879
0.6668919067055612
0.6543657089154424
0.6300476101096937
0.6672642552557132
0.689813512829744
0.6841575825546611
0.6410744910306139
0.6566247641747902
0.6963861646598004
0.6744921080691747
0.6377782359606196
0.6202691763024225
0.6546874121355623
0.6477645229919482
0.6089390222426043
0.5920521631245177
0.6179546452466338
0.6306939835839047
0.6039973668791558
0.5823931224150452
0.5945572666922325
0.5931496608477984
0.5767382795816174
0.5532856971469065
0.5664817531214386
0.5801998842714783
0.5551175078458439
0.5356526494695014
0.5478426407694419
0.5767358729951753
0.5645775778721991
0.5163467566401354
0.5195644120203784
0.560069437135888
0.5460742372264029
0.49069380277567864
0.5118083658347697
0.5573589573768217
0.549889770949678
0.5283201510335103
0.5185721884435891
0.5399768217960104
0.5542399533634049
0.5345223447317582
0.5124089161169567
0.547214353462384
0.567593166092549
0.5395421091845813
0.5026820515513065
0.5509125935744087
0.5638910004683876
0.5543524737879097
0.5000736370681966
0.5251599546001161
0.5594539400930886
0.5497243773096525
0.5151775904080343
0.5054532202110326
0.5566834130050238
0.5505300296044005
0.5140623687530981
0.5265598801051465
0.5674024675669299
0.5635506705001077
0.5539364213253897
0.5657441178492931
0.6482734596021942
0.7153730076040883
0.6732350990859819
0.7128710411435304
0.8279879519799245
0.8280597669034083
0.7382987348083077
0.7051097434595973
0.6799287196905263
0.6599866481324735
0.5690828997281518
0.46382456424721485
0.46501390505331963
0.48784059764212656
0.4757294380304876
0.4474100112968135
0.43762387636971445
0.4788993043339634
0.46105097657439054
0.44626483388773613
0.4447840270679192
0.4920268800313119
0.5048480653932462
0.49375461883470706
0.47966728492130944
0.5497305445697088
0.6400321733813042
1.0
1.0
1.0
1.0
1.0
0.0
0.0
0.4307637672952853
0.4030175324681939
0.4263770035217931
0.4959442811442544
0.5086759168536843
0.4820781674786754
0.4763954729577972
0.46332167194698537
0.522503008932438
0.5103788873488848
0.4808029026325059
0.47380076789599884
0.48341123906626776
0.51419130704166
0.49960383367992406
0.47999292950947803
0.5105958339672327
0.5439618405133106
0.5140560544476207
0.5014214449982733
0.5471711817337062
0.5709032581592245
0.5761754446793136
0.5663385144446135
0.6389126601179732
0.6982449295317208
0.7294359604561842
0.733569501893328
0.8089004248847746
0.9167600624940515
0.9511251294372365
0.9616092658274485
1.0
1.0
1.0
1.0
1.0
1.0
1.0
0.9464341507572499
0.8557677108571324
0.788980398672857
0.7504504719952165
0.6617393924631114
0.6010759661724219
0.5926834470277198
0.6035459274648913
0.5596341435783729
0.5068652572212421
0.5265085004384296
0.5620628632705099
0.5412460044712468
0.5034640135113674
0.5305855440790982
0.5783223780273163
0.5698942568181857
0.5282225067156547
0.5281785419046209
0.5717657305373987
0.56962154749546
0.5349930712023674
0.5355621662583588
0.5826350597707979
0.5847240280444416
0.550150017025151
0.531984520815578
0.5541211092867309
0.5819186624699093
0.5380466257118807
0.5043625077934167
0.5224021371802776
0.5446280787012684
0.5119885490805071
0.4769820586683082
0.4810004956132266
0.5106311808442634
0.4970990959820959
0.458576084432696
0.45875729388488
0.4952468355427705
0.48296150943093286
0.4423238449809485
0.4537865095213817
0.46829130905980376
0.46881955436318073
0.4167661153209027
0.40908263192999017
0.4402436187699469
0.4760411901593772
0.44296842404874803
0.4284648619435877
0.4396189761056647
0.4724994580170578
0.4330509858439253
0.41259872861759267
0.446766500716148
0.4597845059180899
0.4291985003075883
0.4034677782045528
0.4166155793086664
0.455222138898465
0.4350370833493118
0.40998670042263374
0.43074461414600157
0.45539212668965084
0.4382079827458144
0.4052237581137995
0.4126803885121584
0.4431803112711902
0.4328822567620202
0.4175005989598416
0.4062317167120031
0.44477970659349336
0.4546832198017813
0.41748750811888036
0.41063563663298525
0.45031224063457165
0.46661303405091453
0.4401027900650706
0.3935708619819933
0.4496662074496854
0.47664910293874374
0.5096392239411318
0.5456254918043786
0.562000480501677
0.619759738060885
0.6701365787621727
0.6144970444315547
0.5672062963129839
0.585876849438178
0.5710465318847453
0.47225378068797674
0.4058477348161974
0.39642927504567055
0.3921292814405738
0.35278217330994704
0.33173607830123597
0.36934794009578475
0.40390378602749744
0.3590740483378893
0.35482307545295433
0.3901353986242838
0.4031771265122105
0.38662720640528087
0.38676690006549175
0.419735348838622
0.47417866512542145
0.500645264620388
0.8154644499258035
1.0
1.0
1.0
1.0
0.0
0.0
0.14120770880611225
0.17963926804807193
0.2936850723129856
0.4127810017900698
0.4211995946226012
0.37082776500301007
0.38789345050376395
0.41983544632005937
0.44325882034991837
0.4084207269833037
0.3990484233540119
0.4059427372605199
0.44790527851858714
0.4357486016911209
0.3946991385676638
0.433915601878385
0.4444418132160105
0.42775366839560663
0.4132385746057709
0.4177617293900269
0.4717824767125024
0.47291650401159036
0.454635399860832
0.47013956490393927
0.5346000006193552
0.5682726451796237
0.5621984941383001
0.5848234457835749
0.6584445761572418
0.7219613644640577
0.7385947374659747
0.7501517303591995
0.8530594602436047
0.9218145253643051
0.933595479669534
0.9354298395081365
1.0
1.0
0.9865641313302259
0.9039514937853339
0.864303628403146
0.8157496403121318
0.7215126009951132
0.6145707293580628
0.5583340425118551
0.548902485519368
0.5196603970164919
0.46742374153190713
0.4422614242100278
0.48581940148788194
0.47759146667401187
0.42162586721657797
0.4106617755076554
0.4367621796359802
0.4440588578071969
0.44707366317779745
0.41967893281138713
0.45789849216358514
0.4768761160968052
0.4655496399162941
0.4590556363913942
0.4757331796909419
0.5078819681664569
0.5013627033006507
0.4777022448344218
0.4910043021845881
0.5109170781517873
0.5178320720073863
0.45108509521471635
0.4484475413342312
0.4784645217168265
0.44540246105744075
0.4146000966207354
0.4238905421521487
0.4577837529329605
0.46134652358220896
0.42164896881375435
0.4237623872300166
0.43556574547110616
0.4288172212475997
0.39483745225521966
0.38765535484160507
0.4352168750804074
0.44992632084475526
0.4194400816162583
0.39804286328655325
0.40941986162997496
0.45262337687874304
0.4271830208761477
0.39251860148471307
0.41649369835173494
0.44996444869364316
0.431633566501341
0.40636095738300665
0.3860784404145659
0.42465351924922834
0.44043234029407907
0.4134625866534375
0.4130222019366885
0.44129783784320387
0.44625751940009606
0.4228344236670939
0.4314381947339802
0.4557760471549249
0.4588741988825163
0.434564258495147
0.4249326540363472
0.46076934471509023
0.4977144448965274
0.5203659697342637
0.5483834131789471
0.5786901025947105
0.660449710415397
0.7078636308538894
0.6533239503909493
0.5965003212809808
0.6296452889596035
0.6295269024816762
0.5462987543669974
0.4458713320646851
0.44937519294201583
0.4279833570064511
0.37074189450032735
0.3642863337048716
0.383946876031424
0.40256331525033795
0.35811914751126095
0.374688469058239
0.414418988029824
0.4482770420811324
0.40340989048698866
0.40866891578626374
0.4561859136817191
0.5139226805039602
0.4892484957224091
0.7199921113399916
1.0
1.0
1.0
1.0
0.0
0.0
0.08676415616760336
0.22530822967804878
0.3597428832552308
0.4557075943584188
0.4488504585067584
0.406781733766077
0.4219627298508515
0.45898323798825286
0.4816187184287193
0.4313148196943654
0.4242785681523299
0.46073966413507994
0.4691465148495194
0.4485085114648279
0.4181990927863968
0.4616156647229387
0.4602301676365313
0.43310156580787884
0.4247669026802023
0.4751983027046408
0.5003697377633436
0.5039453999364223
0.49057345348472675
0.5319426142301265
0.5733817851180547
0.6056680128665533
0.6014066698824773
0.6443341790684676
0.7218392590791665
0.7757972640092082
0.8019554054215579
0.8521038217269427
0.9134927428322321
0.9411941549161561
0.9511630388504251
0.9482624625181371
0.9820149363727075
0.9740342760474128
0.8903562348141204
0.8044061902390103
0.7567549597748453
0.7143798022619098
0.6333920863950281
0.5660400032095575
0.5533390461137279
0.5674585368323005
0.517557418093096
0.48545612823428536
0.49977647209616294
0.526630785487036
0.5282295673294548
0.49696196638849227
0.4974135136855642
0.5276440482011778
0.5204511370828578
0.49271416836532317
0.5086039040778656
0.5487660303314421
0.5717555366967221
0.5200078464563619
0.5292906761332865
0.5603751728528091
0.5768429550397497
0.5472772839288855
0.5256425212012797
0.5446099558888078
0.5546923233684232
0.524111590945113
0.4899163817061015
0.497482844050403
0.525331560168333
0.5117005287049946
0.4705989840094761
0.47498347651170236
0.5127971601062193
0.4952222504402988
0.4445845188761379
0.45614246124685237
0.4706055611321201
0.4590948091772402
0.4387056233594497
0.41588768499006196
0.444257918140934
0.45562900351581714
0.4344727479867777
0.409746271592865
0.4458003408930339
0.453905518088629
0.4329022377874424
0.4061314812229396
0.42882277734759516
0.45523486253327505
0.41497705419917186
0.4057338244328402
0.4220327769246951
0.45483764164970264
0.43733806151982313
0.4112712768484548
0.4091484381241658
0.43605501580262074
0.4478253714466926
0.40771962266573575
0.4081301665059415
0.4324936343765803
0.44224934094554147
0.4116603413818115
0.40878748489056277
0.4385766513669031
0.45753978887832103
0.4197579914822068
0.4215478656379772
0.44624074372580463
0.4725167334793602
0.4603641925573891
0.48763201185109883
0.5577692772412869
0.6260899340277677
0.6089285522428698
0.6230057554513796
0.6330522535304375
0.6003465512750996
0.5794313424175515
0.5563183909210746
0.5438832718090033
0.5351556364387487
0.4631863270385684
0.38589660641696233
0.3794030707012663
0.3844693715573761
0.3917091725964529
0.36217155137247986
0.35865716951290066
0.3823708077236191
0.39895040670619003
0.377701030029291
0.3753222526264361
0.4107770543957642
0.445355645548225
0.4270231995788422
0.421853012633033
0.49730788805368986
0.6200309785318637
1.0
1.0
1.0
1.0
1.0
0.0
0.0
0.38637766708929455
0.3659733117552925
0.38536951730933267
0.43934364920024577
0.4536743545756603
0.45074994250926537
0.45046408052546366
0.41890159964620344
0.4742418983433896
0.47516878625708153
0.431866336878522
0.4276092245585903
0.4475352657313598
0.4617618642778282
0.4455184354811469
0.43226530843054733
0.4686026998187283
0.49487886497480654
0.4904837138936647
0.45508380302657797
0.4772759486751813
0.5392998936950526
0.5487050178925482
0.5507023703027765
0.5761866784235319
0.6476544788747678
0.6799380391152101
0.670996028076798
0.7268470203177589
0.8072318662446343
0.8428814520156612
0.878306576181777
0.9375626664321144
0.994845093509549
1.0
1.0
1.0
1.0
0.9931583410234877
0.8906590595562289
0.7844435539284711
0.7199233774591891
0.678436727052939
0.631444117030719
0.5619515804279674
0.5521838507707948
0.564512422170319
0.5314671288283827
0.5017061469411319
0.49520447774081183
0.5109160179069652
0.49446618700835926
0.47938373938083145
0.4791109660319969
0.5088595871050432
0.5196366469736207
0.4887052837194982
0.48500995665747004
0.513297140078818
0.5341295656272034
0.5029843262084024
0.4833381145120355
0.5212090954183862
0.5433011495485284
0.5135947622935351
0.4751589002529462
0.48465877539450625
0.5189018843681905
0.4858152736528516
0.4558687422064719
0.46838957832543004
0.4883331293524532
0.47833176010315004
0.44097601865943614
0.4480973092568486
0.4745750222044748
0.4637075636252783
0.4397720248501261
0.4288567020034783
0.454800560162672
0.43515690749772107
0.42135601743663686
0.41688253052005414
0.4485103622935889
0.46331893920067585
0.4408879636126903
0.3935504629887789
0.425781090236626
0.4499034069310122
0.4169774735493824
0.40465016020796984
0.4283194310843498
0.453008649661404
0.4449009606930134
0.41055103997328823
0.4050413737279449
0.4387128649301304
0.40836178490815805
0.4066860666602913
0.41634533776739635
0.432259683453453
0.44471620834313913
0.40840216476889923
0.4015966606341518
0.44935652399450365
0.45224492316165377
0.42894396347005104
0.4197787480269696
0.445813664803007
0.46490693996659516
0.428232734266848
0.4158128924843011
0.4383630848154457
0.456395055721236
0.43778257368277596
0.4275761928889189
0.44873528159715165
0.4599734033479955
0.4438001276758274
0.444779091956239
0.45271755672218755
0.540659831355724
0.5810114631265552
0.5643503007765154
0.5660386134402609
0.6600395690854026
0.6329297889868415
0.5588504059190599
0.538681839525091
0.5614446532491513
0.5308092633958881
0.454404022669057
0.3859058465041906
0.3632708016611605
0.36905659274347175
0.32778797914768487
0.2954581693945387
0.32572285807112417
0.36236082483983684
0.33709835428230345
0.32879036843333626
0.35783672509883796
0.39427621704642807
0.3782847097747407
0.3526482998702911
0.40672248517752274
0.47835274531529537
0.5992435147191627
1.0
1.0
1.0
1.0
0.25053884947448984
0.0
0.09299401318350276
0.28344301682747125
0.31237879542379393
0.35896950323314725
0.38590847875484346
0.37961567470043694
0.3715303734666181
0.35713833433806796
0.3920718195480572
0.4096124675343087
0.37937982683926563
0.3676735342047876
0.3985388833263042
0.406058485220945
0.3980882028360827
0.37874109965257335
0.3885670177585858
0.44041812486148996
0.4169372952098344
0.39890276264149305
0.43057116359067643
0.4699497624612137
0.48743217036070485
0.49768914903723216
0.5039423061533986
0.5625190986825089
0.6038932791672293
0.6052059452828156
0.6570303044590877
0.7071836431222712
0.7739608077009594
0.7963037488956264
0.8284666152010078
0.8909239997187693
0.9492937759410157
0.9269721799913512
0.901112610892487
0.8906965022898324
0.8689563254756582
0.7796030099708244
0.6823824455769747
0.625728886231174
0.5847862829573144
0.5237044200072616
0.5007789608345334
0.4663384275801591
0.4704587105106536
0.4716186467128436
0.444791016535733
0.4227968780061394
0.45022742534615706
0.45639288915227916
0.4261701209205498
0.4261959762560538
0.4620442619583889
0.4941324778602194
0.46716733368643215
0.44746534792023523
0.47617792184741015
0.5138739899727204
0.4971287528934839
0.46087756489704257
0.48082615594073747
0.5227617212496345
0.4973597281321407
0.46109802683339546
0.4640382831508618
0.49047772600171313
0.47476004513553083
0.4256434727956423
0.4128371670441381
0.4501681485603456
0.44137673985300996
0.43033753672491415
0.3897136692077184
0.41488622487036586
0.42942402372516997
0.4033306312699536
0.385543937770377
0.4277495347623975
0.42772738685359774
0.4148775689538586
0.3832663362781159
0.4019568318072596
0.4388391058005762
0.41306832321007186
0.39592637865348235
0.41805477561134036
0.41866100150086805
0.4084915430154707
0.3739075246872318
0.3842129093321073
0.41552298250772973
0.419332761544507
0.37350775081753457
0.37633082059190476
0.3971421439676354
0.4188390022034826
0.39899622060563106
0.39561195494550905
0.42231989926624625
0.45152075968584804
0.4755196661752543
0.5044714023390804
0.5561727587091779
0.6135966929365202
0.6337102161848198
0.5824818477483814
0.553038795486158
0.5623494655472292
0.5722035985547979
0.4681723001161281
0.4102698592698447
0.40958621120776123
0.36158990539691666
0.33115752938866283
0.32338620859517536
0.3616650792068234
0.360733005011844
0.3419350830752844
0.3421569721864423
0.38570451162020075
0.3932154681431158
0.37005784224849186
0.36548724116604314
0.42118481738022
0.4585593862046043
0.4477001656627867
0.45135833740946596
0.8238861857363196
1.0
1.0
1.0
1.0
0.0
0.0
0.08125623500425502
0.24370692418409354
0.39852438203944096
0.42394190816106947
0.3847594501541888
0.3746980526537695
0.4283481083826904
0.43872518813516165
0.40762478527120216
0.4040272804278878
0.44790645051084976
0.4478001141243787
0.4204405226802962
0.408836300215088
0.4343610277353186
0.4578663602387869
0.4024930564748364
0.4053328112519804
0.44385230094818445
0.4570294370942641
0.45223203256228156
0.45891775346633557
0.4902327531150112
0.5322925792766896
0.5254266384760629
0.547841457844321
0.5861420958580736
0.6428234144321427
0.6720502437462982
0.6883576134230642
0.7222577139414378
0.7870174862685249
0.814722067370972
0.8319371943720599
0.8708993652304621
0.9101818066445027
0.9189949973007749
0.8673337988207303
0.8156358873459606
0.7867383129421038
0.7528286755494333
0.6567973708764951
0.5849053778760236
0.5781199232049807
0.5570311688320231
0.5183752385655572
0.47421659465221994
0.47997707683906715
0.5009069171452928
0.48410283635329127
0.46056955033841335
0.4730998531684613
0.5083231075399031
0.49418481417549803
0.48075631497252963
0.48083669833150366
0.512914534314918
0.5059160710541402
0.48363174003068876
0.5028640396959567
0.5409203274038061
0.5458786095964081
0.5075265352790141
0.506360215300061
0.5312353861576181
0.5440943570719565
0.518322742191822
0.48961637709301414
0.5142374832344988
0.5151102985634273
0.4979805359216353
0.46857832830701796
0.49678566663477347
0.5048342201541455
0.4894740537804891
0.47053527037361437
0.47384225291350035
0.5018600072638313
0.47583479798309797
0.44855232417767643
0.4456584736383772
0.4740883519554517
0.47671011796833335
0.4312014572803558
0.43424998237346246
0.4507405958931826
0.45311806876674715
0.4451714044543147
0.4318387346919659
0.4524569617300611
0.47068584071348374
0.4289354883671416
0.4007350185380978
0.44459370794657627
0.47187321532413096
0.437850587317151
0.4135566823014951
0.4405481306886963
0.45849635787013615
0.45470016886421966
0.4256320871013598
0.4430145795529635
0.486766766195786
0.4936952030021624
0.5219320653166973
0.5654331430216223
0.6068253731354932
0.6198124660019207
0.6223654987223499
0.5902360436741196
0.600002811437711
0.5960149721072205
0.5568737947068405
0.5052116977039954
0.49024665753436186
0.4304680128138469
0.3949842197045278
0.32502493451556547
0.3651343718382719
0.3842080287344176
0.36173912787351137
0.3436784241894997
0.34404126723463485
0.38828920622341156
0.3919575014333425
0.36217578143393075
0.38193676817950306
0.416904359485779
0.43423514681503894
0.415163519217442
0.4644036896183706
0.5366902525362862
0.9325682892612571
1.0
1.0
1.0
1.0
0.12139265071926522
0.0
0.20620008990012093
0.34677836106179627
0.3215616509877849
0.3994964859399809
0.45108110657490197
0.44084192014104995
0.42269594879704586
0.42236783405898937
0.43837798381188753
0.4565788697896055
0.4487798795231964
0.41277681438780034
0.4339763575125685
0.4397739972047449
0.43968096376718535
0.42763250591829544
0.4323472937505728
0.44683363764577705
0.46434302146057804
0.4233711685028304
0.4170137828517224
0.47270049693872435
0.5034508027556444
0.48321266734080703
0.5033701660723089
0.5537965922170944
0.6021264314854481
0.6148813422934845
0.6424959114514929
0.7165755543470322
0.7887239951292156
0.7984315139360963
0.8287183800774119
0.9045439518702377
0.9715200476246956
0.9874412227696563
0.988504958441804
0.9867956062216484
0.9758309058469947
0.9032732077531772
0.7970389059380694
0.7016571433217191
0.6814660475800635
0.6427647252209067
0.5601295039211777
0.52323453737084
0.5558375146268872
0.5722824311780604
0.5265567303397588
0.49948556282175505
0.4969375194757957
0.5162788917047967
0.49802512565518847
0.48781188442965717
0.5031123622905078
0.5368654115249794
0.5256193723657441
0.5000265936829666
0.5037005934150233
0.5436171773197626
0.5350312505707299
0.5029626654695913
0.5109749479006028
0.5543621128881746
0.5543391192098872
0.5157009550906793
0.5065599817892675
0.5134957264627652
0.5269461647673579
0.4791686328152605
0.46730363996835267
0.4896599563838032
0.48441987555582405
0.4490368857411918
0.4429159883278543
0.4594600659227913
0.472568064139302
0.44020650223633434
0.41760981581579387
0.43824276600685746
0.48063495441709153
0.4348457328178455
0.3984142442821935
0.41907056608445004
0.44513180390793783
0.4377229244100115
0.39585223207682396
0.4031979894156284
0.4442597967841123
0.44184967444193146
0.41537751329304307
0.41176119628097424
0.43974953416432516
0.42410461479197475
0.40582555741146376
0.3974416623588904
0.43049359981902446
0.4525597571167802
0.4277057960842301
0.41462230088678576
0.43153737359718053
0.45033246310067676
0.43696885725588325
0.41706756231110836
0.42154943057779476
0.4538625265098428
0.43539476674995126
0.4040494289685167
0.42925050055111436
0.45880561704287415
0.45054797933434604
0.43049067512767125
0.43686806849241194
0.4735257047123909
0.4705216721445221
0.44614674795196796
0.4705002131909798
0.5684420188941488
0.6119299030169119
0.5994784819230763
0.6194677495911912
0.6613290818115314
0.6249022226938878
0.5735522326739545
0.5535064251752714
0.5658357315585907
0.5447956941910295
0.4643729170164832
0.40589209425598255
0.39457768363451595
0.4135113417862269
0.4000140357666228
0.3756150934152367
0.383834979526614
0.4217779768791742
0.39955442660453955
0.36033405323526857
0.36036709554540225
0.42047362630454066
0.42614319812818424
0.4138170516551211
0.4255912827488868
0.48771814362710464
0.5247765129105616
0.7544950893354203
1.0
1.0
1.0
1.0
0.24202915570799494
0.0
0.20116135112692285
0.31353113774242053
0.2839458953744859
0.40786769509847537
0.48591260485277915
0.4321489282088062
0.42385424486569734
0.42723951404331634
0.4598028846101828
0.46119775611380015
0.444944978906981
0.42628823980875585
0.46175509995916436
0.46863456886063837
0.43951334181107216
0.4313195826989197
0.4697236099740989
0.4686668611489746
0.44005327067365113
0.44302457045513294
0.4929410587814534
0.5211517797055321
0.5047166654972581
0.504881747794918
0.5596425530047731
0.5839927751317571
0.6116254072173652
0.6352237016457982
0.6927278785766846
0.7573763116743091
0.7928602103326698
0.7963864843490358
0.8689144695851387
0.9432274822617156
0.9733621506024768
0.9891533168632115
0.981905007297275
1.0
0.997978221101792
0.8890774464831329
0.8052585595090053
0.7767331282742271
0.7229474367425961
0.635614121663734
0.5946238024289741
0.5681755658571201
0.5702189102190353
0.5429983652078983
0.5050856788620416
0.5202651700507361
0.5329093573520298
0.5018124820301226
0.4708877473940407
0.5032794206352028
0.5295269406701221
0.536177668786457
0.5042176385868034
0.5147993015956283
0.5454350913694276
0.5380856572847504
0.49490087695020685
0.5058263628297177
0.5320558469812369
0.5255946673614382
0.5040670442307144
0.4940138576513962
0.5393606369261414
0.5322945334035862
0.48737345239653207
0.4736292164540491
0.5000306609050732
0.5179317094070996
0.48396233365216074
0.4573341470354622
0.4844464508901699
0.4923183039109206
0.46703196346039777
0.4404012471111699
0.44596291448574715
0.4738060830974213
0.4659591577052244
0.4227287510838133
0.4337451930899521
0.4820084174256607
0.4681221442345335
0.4329259182255966
0.44525280654832355
0.4639030446652341
0.46280552649786166
0.4236464652952274
0.41314853579357846
0.46095276286711206
0.4790178338382736
0.45141040005228666
0.4411303168976737
0.4565850994914887
0.48452410343142904
0.4618929549445028
0.43850481593621415
0.47525565357754285
0.4750054379581581
0.45256659700418833
0.4446753157362783
0.4495171849545675
0.485463833944884
0.5023845692577315
0.5039389558668386
0.5552274215564053
0.6131479053003936
0.6172337937107907
0.6453140739746864
0.6889457138233711
0.6720975695977347
0.6446945961467411
0.6105888601597358
0.5937474981303027
0.5546197819135136
0.48423371703349344
0.4337644536481662
0.4040171832020234
0.4015545652002359
0.4226218047181184
0.41493421465572267
0.3889627281681285
0.4085020241237268
0.4377839032489672
0.41783719349308723
0.4049562054035126
0.4290035134702044
0.45294972161964714
0.4571073114818132
0.44273960161635373
0.5039294657585429
0.5904491190509173
1.0
1.0
1.0
1.0
0.7579172158128242
0.0
0.0
0.18491172981890389
0.2777314032994823
0.40729817898292664
0.4609290053984704
0.43856764644653257
0.4563891287184104
0.4679017447171064
0.43550364398050007
0.4564025969591697
0.48024338811916445
0.46659235965272633
0.45458771473650206
0.46928460282506024
0.48363520417696293
0.48693954918612176
0.4642462333387033
0.4637452171853079
0.4943916436752895
0.5094984986272019
0.48210881833026226
0.4772043861614687
0.5158048981463141
0.5675523092562901
0.5285741061752031
0.5394153163337692
0.5893932863515511
0.6273696678335845
0.6511930751398612
0.6711183476813671
0.752693949287589
0.8245098977144616
0.8403161980143844
0.8371647263611409
0.9076612051109196
0.9827584640127291
0.9937437002910485
0.9752627575776571
0.9885950895941301
0.9930356502083221
0.9191668166264559
0.8138157876124726
0.7674596795988569
0.7210094690459862
0.6640319920650104
0.591794738031109
0.5655391249683241
0.5655160462768205
0.5766881263685706
0.5467707189011295
0.5324715679155936
0.5404863543135014
0.5592712165892566
0.519457992409311
0.5205040691785888
0.5439019729219087
0.5521262066767022
0.5736794274416847
0.5526778782701225
0.568238358312857
0.6148487736075645
0.5895185682200452
0.5554562800434525
0.5570842400928886
0.589926470449626
0.604582382961303
0.5713883873170523
0.5634367902684212
0.5974516962656053
0.5883101880705485
0.5386458426053535
0.547870113136274
0.5600345632016592
0.5734146551758028
0.5397526599504905
0.5144876252705417
0.5275042292766055
0.5452510478548283
0.5373269537883657
0.5123001214507746
0.5337757932842875
0.5349395085998603
0.49996753208652606
0.4881602571349064
0.5214150601775271
0.5426201201126089
0.5407153399057228
0.5102413279404403
0.5247966142787681
0.5374504182726956
0.5383132606921109
0.4959502398026926
0.5080604980436452
0.550629455008564
0.5366064268067824
0.5182621207171536
0.5024707709507047
0.5434271690152658
0.5595367833358883
0.535788316406407
0.5477095221815427
0.6071297078165137
0.6801082087471383
0.6667045876279364
0.6638041788134881
0.7306718585690338
0.7428323272009635
0.6899492189269704
0.6431165614969234
0.6522606814631351
0.6559347981945315
0.5551643573804382
0.4796813149206677
0.4457107716164647
0.4615729851780463
0.4496198510351874
0.433917948814108
0.4260093525486009
0.45572517943600843
0.4550654473032808
0.41558240633756693
0.4234128266586964
0.4612650068629233
0.4865094303680338
0.49697146076047966
0.4844949215464706
0.5511601490209164
0.5980227478759785
0.8506733885236806
1.0
1.0
1.0
1.0
0.0
0.0
0.316390367699937
0.39563675179153074
0.41207467767821215
0.5032307750086893
0.5366534350909333
0.49746580290527503
0.490349363976372
0.4849317121507923
0.527420055394811
0.5314117574900037
0.5047662028845836
0.5042804681727979
0.5214595953906722
0.5255982776698208
0.5111389821585377
0.4912695018721247
0.5225089440891043
0.5400502646187715
0.5246279061283728
0.5012849674579088
0.5389662238832835
0.5717171192113619
0.5659414861406546
0.5661082861655096
0.6044954765575914
0.6588112529628465
0.684450792559681
0.6995495537183793
0.7520580802847758
0.8476032592670443
0.8917234891310442
0.919921292507996
0.9538940730941562
1.0
1.0
1.0
1.0
1.0
0.9960522246215777
0.8927008856544566
0.7859507644457272
0.7284222444884161
0.677699269203906
0.60090290876373
0.5447541732606496
0.5386135890133275
0.5526098920632728
0.5353922473309204
0.5000470500063093
0.49327367463572547
0.5160230144483432
0.4970244077458646
0.46163705145235
0.4839464000985682
0.5188596786537399
0.5079531439789808
0.46914366185871437
0.4790103660488378
0.5081764436135814
0.5279800225256126
0.5033796988148258
0.4844118615070225
0.5285762840899654
0.5195101612079525
0.49846328612585866
0.4776147084052166
0.4958289420548049
0.5209373404538752
0.4694539476580314
0.4629246005338036
0.47460270190620457
0.48128594230215904
0.4680839038777437
0.44108697555885207
0.4314714034436132
0.46066549608549723
0.4492779782196685
0.42179090253495916
0.4254926309564877
0.4466627044739539
0.4558770000613822
0.43383061183389426
0.40992073038769794
0.4395249297663854
0.4349232050247898
0.4194390877572006
0.4002309307748445
0.423905628113571
0.4385784046880537
0.4159726123052561
0.4004568771032607
0.40370126384709604
0.4238065005025694
0.4120527393416613
0.3901863361988892
0.3742042254647847
0.4252158442091365
0.41450443674035753
0.39730635964731603
0.41331199548310626
0.44421217330215235
0.4426355929757955
0.41174249960180165
0.4248100119021211
0.4584850889496014
0.4389683526534953
0.4088691323039546
0.4085429119651763
0.4352005114636238
0.4322304752017649
0.4047689011351685
0.3853414876396283
0.4204241397405403
0.43246063890854075
0.39793600190175293
0.37607585136013466
0.4066077588866392
0.43467993653323783
0.4251390927274117
0.39412206811587785
0.3889418443132642
0.42164929894669456
0.43621588860547467
0.40341868888350396
0.4522052545608024
0.5356510753144127
0.5735034638756554
0.5713058788480312
0.6090431262854227
0.640810077584606
0.5871793044518399
0.5251107026907055
0.5098479457757047
0.5333657516228107
0.4892901936141226
0.39957690989846173
0.32693331588602226
0.34531270767068917
0.35645068990684703
0.3377550552882044
0.3132432417582335
0.330877957996405
0.355118668793389
0.3470991352789265
0.31927843275086587
0.34399598656853936
0.37214777710530367
0.3760557632544644
0.37420663723258196
0.40995484656979253
0.4690972301891635
0.8000683456092602
1.0
1.0
1.0
1.0
0.0
0.0
0.2755898979338346
0.3092511096678633
0.3144301452934237
0.367757909752929
0.39815247859025427
0.3903948795279515
0.3866412100280196
0.374203352752824
0.37383451776774707
0.41037979084023873
0.39995575519567594
0.36944749821481954
0.3746842317396507
0.42075479570857643
0.4123533244224422
0.37217085830706453
0.38332386653549294
0.4174083228041475
0.4284429189887568
0.39897300307001765
0.4170593916625192
0.44046938105562533
0.4729809448022261
0.44687791260351634
0.4676150831234728
0.5127006596476404
0.564941631179025
0.5845649498230334
0.6103321541315734
0.6730616968257541
0.7367090375301402
0.7743983405227739
0.801230174967138
0.8670148249053444
0.9422070318851802
0.9629446716828387
0.9504724363690226
0.9256073514995258
0.9263397028729059
0.8231743409506755
0.7304533726747517
0.6563611000491566
0.6045412429612245
0.5480432649049383
0.47936073185563066
0.4405793653995369
0.45665315078654967
0.4385697822699668
0.3894128058184695
0.39119820738085676
0.4203958110823599
0.4140581184085216
0.383345221245615
0.36303114801067665
0.38278894813913283
0.41176063048432165
0.3895863145072359
0.3810998559357236
0.38012809137395365
0.4175965736342103
0.40894420436064216
0.39634585393714916
0.38102370029097327
0.42188815325869367
0.4061752113956156
0.3648765075723057
0.3723371338301794
0.4112889261488939
0.3881320394884322
0.35251313587660266
0.36375087173416054
0.3764016612838301
0.3634713275329836
0.33404736000640656
0.32004279584214756
0.3356035623465596
0.3574537884678926
0.33168618101100655
0.29962583048247227
0.3115247954490715
0.3452673389524283
0.3221037155882952
0.2977297577936714
0.3162207753758245
0.3346515149569397
0.3066421454545317
0.26776392605339694
0.2953965277605015
0.33781648095178934
0.3109917617076336
0.2729496820953788
0.2900327564997397
0.312255601284373
0.3024141227544594
0.27155722605197674
0.2762632344767431
0.3096111347384348
0.30409773275117197
0.2862238920766126
0.28053222630094193
0.30109023921346595
0.29627410299278345
0.2833059856861551
0.27941119107736295
0.29676800012269056
0.31190358870044044
0.3048147372744638
0.276036927626648
0.304864521997833
0.3277282911700087
0.33014853366119395
0.3027296054381021
0.31592940709463246
0.3500333359849989
0.34876888439802955
0.35832053145893356
0.42047023596860217
0.4759700652484452
0.4966803171979858
0.5150688404429179
0.4812177795775937
0.4882945461810789
0.4885115623477775
0.4267680593794442
0.3430134362159965
0.3195542272794688
0.31343847154888965
0.2718440589484344
0.2396504453891232
0.27030429465277994
0.2851149021635269
0.26473980021254545
0.24891020687858778
0.27864053051130844
0.3019690876527104
0.2930437126329907
0.2760969333039197
0.30238774442737826
0.3297410520696375
0.3507762931979845
0.36173876967658647
0.6596391750383739
1.0
1.0
1.0
1.0
0.0
0.0
0.004825638251212805
0.12165589639190152
0.26228124271168596
0.3454191127919385
0.31247720604245544
0.2967098957126221
0.3268570441358699
0.3307930102961798
0.3131566443059341
0.30702256057090105
0.31878597224360855
0.34456655418710025
0.3295457233571263
0.29997765498616397
0.32490187943735516
0.35129894991731236
0.32792335666945477
0.31278018316795225
0.3186624145837749
0.35620554314120645
0.36536478437384867
0.3401348352764764
0.3522100947060855
0.38298393958492755
0.43774385698677315
0.418522159307407
0.438867760970965
0.509844052825282
0.5699872266829524
0.5783989449054148
0.5972788821157904
0.6491615474957644
0.7264851501550701
0.7541037847151489
0.7621068844398865
0.7809905517711317
0.813141701716332
0.7758859182854595
0.7066232767455005
0.639728110112152
0.5922522519577494
0.5304549339080046
0.44019310835863196
0.4108501496629361
0.40053557223039293
0.3775251989826243
0.36538159952539806
0.3567449275151008
0.3817579763896486
0.3845538249077599
0.3515293866965875
0.3410934783232393
0.36802086697817793
0.38019833738731673
0.35881461358401723
0.35666340994269896
0.36798700125900524
0.3944902597559884
0.39523726425638667
0.3751709037639041
0.3931305482272058
0.4143997184975306
0.4049067694998012
0.36522359248991876
0.36838260215873014
0.4109443811501901
0.40879602536674664
0.382589127376686
0.3672908351781624
0.39490119275336133
0.40250279981838544
0.3619980638667661
0.3618383101375529
0.3734330781115811
0.39734930110683264
0.36320070148250927
0.3571125645640465
0.36743865629962214
0.3866978336673014
0.35987056010452007
0.3387479806508823
0.3537019097146553
0.37998185040845084
0.3618115293927718
0.33949592800244216
0.3512490657638484
0.38585629488426765
0.3732991519046639
0.35937165406614013
0.3691946277385515
0.38317780848451877
0.3808282794659312
0.3572773813529175
0.35959672101517093
0.3867595922028315
0.37554933748359176
0.36708338269336727
0.35203909506957354
0.3733211306980393
0.39146960708965517
0.3650015119998624
0.359395190735773
0.38804990538547796
0.398526822474581
0.3819303435428478
0.3702417714201326
0.4008981658857409
0.4544659773142753
0.4838308828413722
0.4781200514843612
0.5169903467305629
0.5788864565079015
0.53106941529523
0.4758033175973326
0.4694770814004353
0.4914031314691821
0.45218584792224925
0.3745718816885913
0.328934823784193
0.3524571314382266
0.3293800685354037
0.30183475936015725
0.3066413841941273
0.3339882504995962
0.3394281987680909
0.31141569704432215
0.291276645505961
0.3231501147992563
0.34478185355893975
0.34111966466914706
0.3331656231147197
0.36714363467211697
0.4188225649350457
0.44615046611499365
0.7593667678044977
1.0
1.0
1.0
0.9524228112581279
0.0
0.0
0.3114126704269344
0.31475523482944523
0.3541326255732267
0.3912542345694123
0.38907615059614437
0.3660296170642351
0.37268024703033553
0.38297085483939375
0.40293259506466195
0.38327422510397074
0.3667914854485296
0.3903570492764623
0.40075378027659775
0.38869980056797754
0.38381161486050624
0.3912512350041482
0.4062730988723711
0.40449613299839376
0.39330964215341374
0.40941449202788827
0.4393976333155936
0.4250898008926782
0.41714148080008745
0.4348489896754753
0.48246946258636314
0.5054867345123194
0.5210565036638986
0.544137411302785
0.6139162052348386
0.6523290468050975
