MLII
0.5
0.634898151895319
0.5674490759476595
0.17973439184117349
0.0
0.22777596013496398
0.3566104110025979
0.4325039612942498
0.4720856771599906
0.48486807237318497
0.47147436638245566
0.5197883417633518
0.5
0.521003715564324
0.5323565192796608
0.4694779114534128
0.520259644839679
0.513510373521797
0.611077945035758
0.6382875692742126
0.4868612465390676
0.5415961285148515
0.6592086392357951
0.634872741706527
0.6815597053764917
0.6919927759621425
0.6779674793061083
0.6664332259126744
0.67876687268214
0.6940122941396347
0.7317812849563643
0.711996914723127
0.7061542185564804
0.6866226315864175
0.6731280812623816
0.6725661146461325
0.6355388504300536
0.613769470274736
0.5801364407277391
0.5671658332882836
0.5353669157998896
0.51592415258402
0.5060977539774076
0.5005316295897594
0.4805389697344332
0.4943743969188491
0.478674025353053
0.45288906596151124
0.4325509240523405
0.4287968041193606
0.4101036540473147
0.4321862422757716
0.4175010686111575
0.4024551545151656
0.3966560167487484
0.40478629022603146
0.38101350801595985
0.4148673870832097
0.4322107198215311
0.44058927142608867
0.45562536811676146
0.46618254165987494
0.43429761943381007
0.4375207737771987
0.45337289435964045
0.46258689023115007
0.47320109511138025
0.4092835780109995
0.40672257932802297
0.38595624582785276
0.3210809870662403
0.33630783896775773
0.5570815973093785
0.7044737804152141
0.8785309344757755
0.49060658250876266
0.0
0.0
0.0
0.0
0.0
0.0
0.0
0.0
0.04993679147081753
0.17282117782388434
0.26141685631759154
0.36514013385575667
0.497328896142911
0.6276292117239342
0.6636984710543581
0.7228234214292106
0.7407830488392337
0.7739950805320721
0.7873835988969539
0.8253285077766865
0.8451885928123406
0.8757483805568871
0.8794258435615685
0.8882089593862446
0.8841479378206968
0.9139391505121128
0.8931321769743101
0.91486784154725
0.9105299426556487
0.8987711970148122
0.8715804875804072
0.8628207527104085
0.8310574734046725
0.8109065969287463
0.7545264108398273
0.732370605674752
0.7061897078459601
0.6656134699625612
0.652025680536981
0.6260122157478922
0.5705072642605489
0.5534864944679007
0.5352374881525054
0.5163984511668477
0.5101603691895484
0.4957531747156908
0.48805850414410185
0.4702901230225779
0.4778038513559216
0.46013106845060286
0.4566007514992408
0.47506701968975856
0.4876861506101117
0.4636446453413058
0.48148704747838406
0.47815839724828446
0.49363911912249236
0.4565521290036568
0.464061914350223
0.4798331756046143
0.4782302335702647
0.4734503457114644
0.46481073917941734
0.4685194546558731
0.45142759021137724
0.44806342471577193
0.4598646286976352
0.5026067060085229
0.5062369074908794
0.5191885490147694
0.532931311184938
0.5359718719265685
0.4756169477186599
0.47162160263576336
0.4749068640334511
0.4835389571795215
0.48534542835525085
0.5006107330732164
0.492253174755095
0.5074383283944702
0.4661245647520702
0.453675504711119
0.455860034246545
0.46246659874004126
0.4872497909892252
0.49251622737417805
0.4982171258540643
0.48522689979656153
0.4407134330964572
0.5479875276167652
0.8489670131391971
1.0
1.0
1.0
1.0
1.0
0.24123421607427212
0.10604479182071373
0.24553203435307366
0.3242502246380708
0.3609582009046252
0.33368761155538273
0.33167571448634786
0.37712682004486453
0.4178770471981932
0.39551848452827576
0.3957966573220727
0.402998524905553
0.4310007591346567
0.43372655039674896
0.4365844690589891
0.4355426395955341
0.4555760219723883
0.45228025714184017
0.43574288480871876
0.45263572509431205
0.46498752493824175
0.4786514137232059
0.4925974326315183
0.5403406113138806
0.5290810057394354
0.541211037001156
0.5298400788807316
0.5496792595633752
0.5129606598216182
0.5496178390025068
0.5674490759476595
0.59041547137249
0.587392463106098
0.6022372090597032
0.5952901485836903
0.5883292935868842
0.5762428295789613
0.58267702365341
0.5674490759476595
0.5813013812900053
0.5782600431911125
0.5827219057361468
0.5725054877966722
0.5648514173963682
0.542644994827446
0.5428355743233525
0.5307346325096782
0.5337425444197541
0.5730841974385587
0.5335743642993986
0.5253490327394468
0.5091678251011138
0.515411648087787
0.4827136542667402
0.5191933592467401
0.5150246010843278
0.5736480535054399
0.5665164409538289
0.6385956963848971
0.6650784653474078
0.7313319331660418
0.7411407552212115
0.8798377986111541
0.8460614997071481
0.7174874163638995
0.0
0.0
0.0
0.0
0.0
0.0
0.0
0.0
0.0
0.11413021641939176
0.2696686679011649
0.29585212148950046
0.41922143837803577
0.5711142582982296
0.7306363447749271
0.8045076819149404
0.883220456395844
0.9119899865834512
0.984155585941382
1.0
1.0
1.0
1.0
1.0
1.0
1.0
1.0
1.0
1.0
1.0
1.0
1.0
1.0
1.0
1.0
0.948545246351685
0.8638666054756963
0.7955365626413657
0.7470793028841649
0.7316906571337913
0.6927334701935447
0.6534167071156102
0.6058497517569971
0.6080519186183001
0.5646312099935601
0.5933888000121367
0.5874940743818899
0.5870578745484393
0.5631843886774934
0.5510370461080115
0.5425226240531725
0.5133208127746367
0.5325809650601357
0.5279589191191845
0.5151528460507548
0.5063724191882941
0.512689847305116
0.5075883187312137
0.5146509291025145
0.48950951739225246
0.49495013381302966
0.4759371239719741
0.4912261731072135
0.4737242873486486
0.5019157019327076
0.4595944189690676
0.4705254840507737
0.4931960039226995
0.5340964458981707
0.5176860796193296
0.4672776036697955
0.5239652500315868
0.5388903281501405
0.5204978710750807
0.540370783005882
0.510786484990361
0.4955927879991761
0.4893182404554284
0.5044771739514926
0.49746627847405955
0.499692482564547
0.5087073339798589
0.5335004236041347
0.5634158907665814
0.42735150730379734
0.44662833248562334
0.4781480070324635
0.48442849642642516
0.44336182994702467
0.4592020951117157
0.4539671210528803
0.4475164774588203
0.4205409858560101
0.4353899000619492
0.5619446089171362
0.8000969248840211
1.0
1.0
1.0
1.0
0.6559618168040912
0.15955197484165287
0.19707700527284597
0.26934588747425
0.2870545493407804
0.26138983689994555
0.2514039265840999
0.2522496995207377
0.2710944905765278
0.2930457984564651
0.3070139264081374
0.2631533237336362
0.3152930514955913
0.27091267117309076
0.2725560068300277
0.2674082505036929
0.27967927779318935
0.27931563199146053
0.3061592683637763
0.3312431201018898
0.3150766433614418
0.3129800476057999
0.32149271616251685
0.31310078795894664
0.32869410483140193
0.31569351186487526
0.32518857349011226
0.3554244859424636
0.38966105545790014
0.36342302488394634
0.37086708853282707
0.35325084844001314
0.3766099636914304
0.38733002941253397
0.39273636322404226
0.406046731142329
0.3972105273700827
0.4072417201643068
0.37642037033709114
0.3875551608086572
0.3704389664834086
0.38034594606072913
0.3809410406649999
0.37107646382134646
0.37193126283657074
0.3802605487012757
0.3610774830819871
0.34957216603265795
0.34188393410120144
0.34411885713546025
0.375528579139203
0.40425158100885294
0.4576457265464084
0.48884131043190954
0.5024910809239096
0.5
0.5620278064427355
0.5467860983178807
0.34407503427354613
0.0
0.0
0.0
0.0
0.0
0.0
0.0
0.0
0.01222857769904273
0.12498838760468703
0.1872272433845675
0.23684286305641566
0.32454425825011474
0.45336060174741083
0.5476436749809225
0.6314153313779599
0.6843048837690187
0.7150840889785861
0.7367304166664526
0.7786499106582447
0.8037754959404724
0.8199851753192832
0.8279967460829536
0.8689012049247623
0.9074599365302845
0.9122207882618106
0.9207883635895548
0.9345719792027113
0.9273368286661585
0.9166902525359728
0.9178277703788694
0.8739692586451042
0.8497244290600081
0.8048848262367752
0.7853720542180307
0.7205388429440991
0.6792116608632611
0.6314654712496
0.6024852786504923
0.5656324266868828
0.5414464689385385
0.5140367530289213
0.5
0.4822956065036899
0.4784198572294846
0.4516703836321252
0.4660583857690317
0.45381413063298703
0.45465696575791315
0.45754921936577836
0.45848609569142695
0.45959213930659654
0.44233537726134775
0.44395679323530146
0.4346005238793447
0.4444370663321668
0.4287433776171713
0.4510291625350812
0.4474363233857721
0.45112448590478416
0.4340079554225416
0.44240183296145996
0.4386789434651914
0.4364071090478993
0.4342440032516863
0.4411138134020365
0.4393240282581233
0.4381279455468664
0.4309765437236961
0.45339835389127103
0.448894190789441
0.4347672965903552
0.43431770788487817
0.4565939936287819
0.44980450069191286
0.44806406752128664
0.4494792809738507
0.46544534431397677
0.4898676606134245
0.4896943783156968
0.5112173487376239
0.5116555317523233
0.5027410559814637
0.4805731358016261
0.47606996629324155
0.45478360515687904
0.45230205863803014
0.45901167505306584
0.47024302210836727
0.4716980634972442
0.48252382416846046
0.472589842489906
0.45452650850026866
0.43700386138652736
0.45331525565721664
0.4607785321096106
0.47393284189203244
0.43685551726261707
0.5417424378172103
0.7395634492082681
0.9717442261588571
1.0
1.0
1.0
0.31986222102597434
0.23597310573820224
0.3347295091319446
0.36752742097223795
0.3414067886525607
0.36394089264228285
0.37665192572237305
0.4141999036081619
0.3983228029750191
0.40380343822432446
0.3826194319388001
0.40447494849908666
0.41112910465462554
0.4125434857075712
0.42073372753424537
0.4238665689084219
0.4309660635513918
0.4394168421792314
0.43440820017271414
0.4356371783653904
0.43638790945082045
0.42945403672053073
0.4373452280388575
0.4569031298439752
0.4617153850207828
0.4776391456117888
0.46689757962532114
0.46875829061874097
0.48057194129051845
0.48985930888900303
0.5172431427380502
0.5078445772716875
0.529548592355803
0.5274081065485683
0.5440757791661358
0.5138563444922668
0.5309993740469616
0.5335202406811266
0.5423073619734933
0.5203217187083422
0.5209980641993973
0.5037263651976879
0.5084421885751456
0.4979807900715782
0.506685582082259
0.49073201947785516
0.49435190543828267
0.4998629882657985
0.48712757756532443
0.49719685477333153
0.5433859400037327
0.601446245982968
0.6448014904566532
0.6794807905836933
0.7055173306771707
0.7228879716051928
0.37509011773169243
0.0
0.0
0.0
0.0
0.0
0.0
0.0
0.0
0.11149545814682908
0.19990092631803136
0.3275354494824961
0.44854145852751676
0.5900667287057878
0.6894950768069131
0.7575167120199695
0.8009153883173525
0.8390033533720305
0.8747438109397354
0.8979934323085447
0.9360117929275826
0.9793049512915136
1.0
1.0
1.0
1.0
1.0
1.0
1.0
1.0
1.0
1.0
1.0
1.0
0.9433183226119617
0.8882028045972492
0.8516888403655404
0.8002131315702247
0.7420169570699697
0.6949199658401024
0.6648497073393332
0.6431341984512382
0.6049282108149242
0.5953167428427764
0.5826932496335867
0.5748818462873115
0.5538865155549578
0.5608917502108903
0.5435566708939029
0.5641799880705092
0.5306124999737716
0.5517372913809512
0.5419664374447771
0.5528805673441163
0.5237070832049342
0.547117059460013
0.5334406042703386
0.5373579964550389
0.5129000293754563
0.49915682491201724
0.5165918668676077
0.5250142506500823
0.5067586516781154
0.5070382189049993
0.4961966414776632
0.4952915414717096
0.4988448132938569
0.4977748164527589
0.4989125382429839
0.48769754831262124
0.4986798409912998
0.48797652898075644
0.4939803022239232
0.5020634641573649
0.5297500900186553
0.548141370896173
0.5354805873760908
0.49235832430164506
0.4884675821711359
0.48303044089202196
0.48409871236767305
0.4706879399120272
0.4930099223384515
0.505459384561756
0.49785267758041307
0.472848817331723
0.4661227516874013
0.46301584806379603
0.4560033909976764
0.46689549923361773
0.47463811395179806
0.47264071790296536
0.45046799298417267
0.4306991733112885
0.5195273620400126
0.7526547578020735
0.9380108842522062
1.0
1.0
1.0
0.5503473935826922
0.2543107635686889
0.30514580476179726
0.36827767772008085
0.37461602710868097
0.3415610096207149
0.33590018505451885
0.3715018475293147
0.3799327807311193
0.37114743166934905
0.37152497388936206
0.37111620636485465
0.38113770757285065
0.388655486744846
0.38913977692246593
0.4006372901901313
0.4009519408017613
0.40252057467179014
0.4183131297201673
0.4057765042845804
0.4113964785775209
0.407774419314738
0.44981122608127266
0.42482110126079836
0.4367752628985683
0.4400012836786322
0.451467438968824
0.4509453577305808
0.44793546165980047
0.4494969736541591
0.5013189477519144
0.4708285778171767
0.4701718796167488
0.46958271811962193
0.49374992452542604
0.4730108122187991
0.4906356188418857
0.4743483752297014
0.4670704053856828
0.4902957509120247
0.4891159041759165
0.4897945076278332
0.46313989389708354
0.45442089068668257
0.47529945043103694
0.4625023687414137
0.4644399173656078
0.4865361653746457
0.46544299254095883
0.4607241991685366
0.4338098024784002
0.45177060684815584
0.4288771109847394
0.4242149721540631
0.44310898331982196
0.45927922548831185
0.47550354993987015
0.49491820436892076
0.653121673334779
0.7100700448343918
0.6366219965139621
0.060105187774752
0.0
0.0
0.0
0.0
0.0
0.0
0.0
0.04630076637741194
0.17171122662680025
0.2530497895406268
0.3927083845388462
0.531590672214343
0.6314335025807737
0.6752905198268528
0.6929386682660448
0.7354087896210562
0.788030661761803
0.7831199616371707
0.8391395590761906
0.8702983560539064
0.9134306767067624
0.9263556443288697
0.9435461374937466
0.983429640698407
1.0
1.0
0.9883632504358049
0.9613158230014622
0.9330373044669183
0.9067429376718504
0.8546566287047123
0.8267765795140317
0.7245238778189781
0.67597709315702
0.6308415259553983
0.5924022113313969
0.5648523953129467
0.5677858080913138
0.541001271317622
0.5289908445542594
0.49167822819225393
0.5096324906997045
0.46780127522204695
0.4867386112547389
0.4896664053709701
0.5070663430544782
0.51451792117776
0.522817849451337
0.5126444252712391
0.5108495441118219
0.5035006608684692
0.4965251260535334
0.48808314455705454
0.4826000617561478
0.47309705898452564
0.4708398318225667
0.5
0.47580140392489606
0.48737820274443866
0.4995259734720336
0.5168766027758461
0.5057464538954639
0.5109685416517166
0.4589613368680305
0.49110039866823224
0.4882863552677226
0.5226861304010623
0.5226054419814659
0.5532911782925565
0.5556051900473618
0.5500461711027563
0.5142720042726724
0.5246016529635751
0.5020376703257516
0.5044452787338829
0.4778471199844997
0.4836719555019253
0.5027678256266682
0.5038852034639675
0.5041946149754932
0.47655597300599073
0.4951616998771146
0.4758057381687079
0.467866702934963
0.4936039628252349
0.4734961689648536
0.4319817265544727
0.4708274147994125
0.6005813316472649
0.8134286712685176
1.0
1.0
1.0
1.0
0.3930750426570462
0.2593399248892324
0.34627643699978383
0.37159868311524324
0.33600966054079373
0.34753416517546076
0.3490855362189128
0.3829883798765147
0.3934939105413891
0.3990555773502237
0.421147365451767
0.4147409780061551
0.419868447252686
0.43456154683912196
0.413539299203096
0.4026383005545612
0.4292611919986684
0.43216668689889737
0.4268389286109576
0.38739848217693257
0.43347533788066633
0.445130338128379
0.4703903579158678
0.44496364591770554
0.46774492379899063
0.4682640895458661
0.44040373013313827
0.46060717467186646
0.48537812807464736
0.4847886980570985
0.5244102574185853
0.4889570993261036
0.4670812754037925
0.5311957884174331
0.5303812164131158
0.5264539951720346
0.5192384800211339
0.5490934622126946
0.5334974168570282
0.5139811376615734
0.5054900843655559
0.4952262643503561
0.4793839836966923
0.4721235948807808
0.4569964644067694
0.49533463586798077
0.4827756976395503
0.4312550668500261
0.407030904230328
0.48462502398135365
0.4927597270443286
0.5690105388075315
0.5848490357991298
0.620965958333084
0.623834223277032
0.47642487888262364
0.0
0.0
0.0
0.0
0.0
0.0
0.0
0.0
0.12425863601713996
0.21728333050862983
0.3658168365580276
0.52230000530553
0.6777792773490088
0.7451798119752089
0.810342263558119
0.8395702505296784
0.879948288205774
0.9059174950572956
0.9619779679027278
1.0
1.0
1.0
1.0
1.0
1.0
1.0
1.0
1.0
1.0
1.0
1.0
0.9593445412410357
0.9087961188506238
0.8753973355391693
0.8080417441292542
0.7792212393247027
0.7413210542955925
0.70876375868752
0.6570924624681449
0.6067748890483443
0.5846170726133739
0.5953600806415551
0.5841841400887878
0.5755873327934701
0.566021018499316
0.5462626206214478
0.5376006522448449
0.5583274700080372
0.5350530292886974
0.5363398983917215
0.5293391804089457
0.5240637143311221
0.5278962747657514
0.5062135946609512
0.4948508604845075
0.484512547115176
0.5180728501491098
0.503252040668234
0.4699147524464694
0.4891025161270742
0.48650271646060556
0.48246799359974635
0.4853104030177621
0.4601776211008487
0.47394540360853965
0.4890935045948194
0.48052227605607456
0.4597754967184303
0.481675093227267
0.46453273885053087
0.47119370271655736
0.46944901321639393
0.4663554561783889
0.469765565140284
0.4981724698052547
0.5233176456233215
0.5202606177649808
0.47715843925887347
0.4718112089422061
0.4836506694792309
0.48909814381315864
0.48839890426293503
0.460155398459036
0.4176190734539918
0.4563522984644396
0.4510882763997883
0.4245370000505141
0.4268951398136089
0.42857429072611897
0.44099792874376265
0.42572296734515136
0.4527137745371534
0.4304668868490683
0.414611197633579
0.40400983670523605
0.5001840372565062
0.657169085846274
0.8376236573941813
1.0
1.0
1.0
0.6942759717537016
0.2714979489440493
0.243620109705711
0.29910329018789905
0.3073393243702455
0.32568160391551937
0.3220571306762374
0.34009870311474233
0.32783960817566166
0.3809079006074697
0.37175187195765724
0.37615572814253173
0.36580378607801156
0.38409953317263623
0.377154441770644
0.38967336745458214
0.3968369910197652
0.40224825071121506
0.3912261807506486
0.3873198534479539
0.391986353903963
0.4142883392571687
0.406783888309902
0.440677357643671
0.43033352494727206
0.4197949450339672
0.40946302680471164
0.44967235401050587
0.4350103559084853
0.42271604626170023
0.44660077998757686
0.4468164728985107
0.4588076531116349
0.4542010591188004
0.48665284361088884
0.4772946341272572
0.478844232490421
0.4608203354500756
0.4840525134415993
0.47487634676124646
0.4903212948517853
0.48560524341394684
0.5017189349506576
0.46279419995778814
0.4852427958688981
0.46076951652938075
0.47392846819580664
0.43900529140148825
0.4387630844355833
0.442707443029876
0.43226908705778067
0.4475097362949484
0.43166907075534044
0.4342618115329896
0.422747450949732
0.41272110160897785
0.41927472364426255
0.47414949869077727
0.4690666517644485
0.5247377481808799
0.5306137440825491
0.5743429383724855
0.6201429811333679
0.746076143208814
0.7024150291512401
0.6418404640826968
0.07751775273171316
0.0
0.0
0.0
0.0
0.0
0.0
0.0
0.0
0.0352426286427284
0.14375159585470762
0.2260954942858206
0.2618754097285316
0.2945208635984939
0.3875022160540985
0.5055515033079021
0.6330109542839061
0.6804143904233506
0.7458243551997877
0.7473107841608215
0.8008469268991044
0.8082444554928851
0.8515200287297487
0.8933261001974963
0.9236332284491848
0.9531271403454141
1.0
1.0
1.0
1.0
1.0
1.0
1.0
1.0
1.0
1.0
1.0
0.9855063846365777
0.9511591287399466
0.93191322049462
0.8853126727684494
0.8444082663200246
0.7800997175919829
0.7450016158602929
0.6977570516383959
0.666344950659285
0.6233459415058045
0.6242725289320401
0.5835509792830377
0.5486999430417852
0.5786140038809661
0.5843707061972678
0.5678102650450626
0.5529717174665055
0.5496048238216956
0.5525726138547752
0.5431623020945032
0.5521297833279357
0.5523167642850424
0.5159341760187474
0.5186249206809617
0.5110431184149447
0.5269101799607738
0.5235220872452029
0.5385637876959849
0.5145759810652117
0.5332147323468356
0.5203936612238145
0.4804603794659023
0.4668975129605643
0.48939705045788573
0.4453646287328305
0.47577466574343596
0.4765657528465364
0.49257853289179065
0.4757040135749139
0.46218583211328124
0.4483010494691059
0.48593963455726075
0.49098686746021925
0.49541403130787864
0.4594189649175278
0.46558187205707197
0.48096966333269797
0.4664954180985652
0.4695397329713199
0.52358189943811
0.5177441598931274
0.5160190819260834
0.5092342628748612
0.5037549242183095
0.4927324019840385
0.46881345079083053
0.49370237318586413
0.4600974520868064
0.4679073431821984
0.4875352550549531
0.5113344657054847
0.4694474576965346
0.4760532759244306
0.46320162277478766
0.4410749663507384
0.41785483644567034
0.4465398114149145
0.49280634024813896
0.4835213452117369
0.47042278144031124
0.5054378464778746
0.6944192901595827
0.864370870780396
1.0
1.0
1.0
0.717899811243428
0.26437867462956355
0.32474923517846993
0.37461074855270754
0.34964688222127044
0.33576226716593294
0.33956373846930415
0.36513319359415963
0.40312574673105084
0.3666386819408398
0.41418204710439827
0.43286705159087385
0.4000606142598926
0.40262910487329345
0.4226791333702852
0.42899938991151815
0.4272191324885607
0.432595494707756
0.4341498728515494
0.43790586374754153
0.43386285773023314
0.42701371709742675
0.44433627431399164
0.4946750587134988
0.40199057491797435
0.40455593634685433
0.4201760501481659
0.4026055862459484
0.45577833195855844
0.43652277593523703
0.4565569027736518
0.4665780199383942
0.5101506554977587
0.49580119894979446
0.5365553560608449
0.5190638609241627
0.5221497820268944
0.4930262860256206
0.5153802753365515
0.5075513398547019
0.5263369537108159
0.5119066365805748
0.510109860296535
0.48951519679828664
0.4934176318762408
0.4796107485568032
0.47633285536342324
0.46427127496029136
0.48306007964396647
0.46600829527729787
0.4632634920715111
0.4590585631877554
0.4697640391693878
0.5474940169360252
0.5904802921676452
0.6274122965762724
0.62622077863812
0.6640334748231231
0.5214742429305587
0.0
0.0
0.0
0.0
0.0
0.0
0.0
0.0
0.0
0.09412214860040483
0.1848507306473041
0.297767576371398
0.4240986059488561
0.5841308852854913
0.6786230504165329
0.757394956798656
0.7831911494046657
0.8430799405617275
0.8670285668600956
0.9019451481891465
0.9213535422129737
0.9829422040193684
1.0
1.0
1.0
1.0
1.0
1.0
1.0
1.0
1.0
1.0
1.0
0.9807299189432023
0.8973184955233096
0.8355253757553157
0.7740831200176199
0.7193148795020594
0.6943984180718509
0.6530360251570178
0.6270498653742438
0.5661145854253924
0.556048757393999
0.526028094980844
0.514950739879843
0.5117294102256176
0.5091846439949643
0.4856660905867841
0.4987980356832754
0.46452745269160056
0.4737391261574958
0.47336833382225957
0.4624346996632768
0.4582513706884754
0.44609477367794553
0.4438253274633439
0.4441034686271196
0.4390730816812326
0.4195486486034178
0.4246288916882321
0.41505359871626046
0.41378016486525393
0.42193466272153096
0.4142351766596549
0.42046915856646533
0.41504639018941203
0.41623024004535425
0.4200106394558462
0.40605196061423926
0.41101894062473826
0.4081566641592246
0.44139986720133917
0.44251194489283313
0.46592314462680856
0.4421412045966019
0.4509775855529664
0.4218351629850788
0.42151661939278895
0.3888224133028742
0.41082691590588116
0.40225856983826985
0.39367630769754763
0.39359989795098616
0.3969662987189962
0.4005651445634199
0.38977426696316236
0.37197174105301334
0.35539178191416737
0.47829090811903346
0.6671997958236673
0.8853967515796924
1.0
0.945598184112454
0.5087221796289086
0.1835584124628012
0.2222168962406849
0.28828493395069643
0.31043059750323304
0.3121526103579317
0.28962118350560484
0.33797884669167416
0.33631661686692665
0.35352411823195756
0.3491844291732261
0.3677612963582917
0.3745449838061165
0.3721830360656974
0.3606356628166242
0.35882278806328616
0.3745623341223229
0.38032365219592057
0.38408479930307954
0.38962586051432224
0.4018459966072486
0.3976293563307486
0.3893046939270389
0.39717930068769103
0.4269253389149771
0.4094107781617044
0.42643922443120835
0.4224216627320234
0.4269490314478562
0.42990320897431805
0.44792210955885087
0.43466950102116597
0.46846979646546727
0.45614287780593443
0.4633786514807111
0.451772043782971
0.4623772865490892
0.43961677692789136
0.4430645129557855
0.43998298517783957
0.42836570669853247
0.4204321046620657
0.44436526041596675
0.43542561842126537
0.43051661791010226
0.4140557109955566
0.4020453568095551
0.39792362787436775
0.3909522002800511
0.4023208242328101
0.3982423320056734
0.3887069120057661
0.38863735540136457
0.3966234512430953
0.3874251942653288
0.39999658142734795
0.40575373977314594
0.41789023071204523
0.42762046281881816
0.44953077125255875
0.4603730577580823
0.4616502055927298
0.4299207658638015
0.4274035585082266
0.4284346570901912
0.4166817849036269
0.4146486251412548
0.4248903495801466
0.429570152282358
0.3987652319055874
0.3936086344463976
0.410054082318177
0.40792112542662406
0.4046022021937493
0.4352782117124095
0.4192146431587206
0.39923911950934066
0.4409464382757333
0.6535323489136161
0.8388733693411552
1.0
1.0
0.788010791350597
0.29515538806456115
0.2545407338140382
0.32595134921012797
0.3600943466526463
0.34956280847261056
0.3352194992007117
0.3353876218077273
0.37988602721919623
0.3617144391432421
0.3628738104443997
0.3676815795606193
0.3760013925428636
0.3782000136601526
0.3813968262680551
0.37991736083081795
0.39318634717720685
0.4067174029624402
0.4222020826379163
0.4486658828558923
0.4367220920625684
0.45341579166598345
0.45940168095856393
0.4762286715604662
0.4679163480670886
0.4914079725706836
0.479567820977024
0.5279564985021751
0.5343330203315807
0.5380996887820846
0.5261110179645627
0.5173260722067006
0.5032687003219554
0.4949778046263943
0.4856250255419317
0.4760431352062871
0.4657047107481948
0.4706431540561248
0.4559104888549633
0.4373284707238512
0.4388241909363244
0.43336313369581597
0.4370930390890703
0.4275561457894307
0.42184058344795644
0.40904759306953054
0.4099816848278287
0.39172950326187317
0.3958063280739057
0.37918222030524423
0.3925800069273958
0.39669552381170725
0.4033449928109293
0.4069946254260649
0.4125422668553626
0.38723389952597154
0.3836064981766967
0.3854378776778017
0.39384574998099453
0.38642506550309597
0.4014332536666675
0.41757021110913684
0.44077758961786306
0.40550734988922
0.38203425100865596
0.3708309669901137
0.37783478551803384
0.3906641915455975
0.39237015312169615
0.40655364597746074
0.4020573011972874
0.38795737988154444
0.3706501142269741
0.4327204193414035
0.569694088878142
0.7370821985626449
0.9300587532780051
0.9959835558138789
0.820044829265003
0.49734079306774276
0.24248096427132726
0.2951959216337616
0.33384596933887606
0.3675895610164113
0.35163351764666045
0.33636671581865396
0.35483262544216687
0.36639294309576054
0.36690517000143724
0.37631224668896257
0.37981623828539196
0.3849101062000454
0.40281948403815016
0.39792869081131255
0.40129014799293944
0.3992794424113343
0.4044051268391943
0.4168444278313528
0.43696927570352484
0.4486708425208613
0.4729255075696246
0.477604435733675
0.5017834680621889
0.49434692476106035
0.5275386256103616
0.5397294354196666
0.5160871773576384
0.5304430578419779
0.4914445271345872
0.47930798902509986
0.47639972865880925
0.47235960964678136
0.4709058019365943
0.4555216615429254
0.45481158493314505
0.467464324022839
0.4481640976011133
0.44889373352681866
0.43804625562574484
0.4540769038686556
0.4317736181692643
0.44265654497032186
0.4224885119643429
0.41288407503924224
0.40762850723559224
0.4281746233368319
0.4345273241509956
0.4453937885694771
0.4367883887496665
0.45662138214857634
0.45093872603460483
0.4405220592268422
0.431156133485792
0.4503788301852009
0.45257386008723116
0.4503462294392152
0.45549935135843667
0.47864867607325784
0.47774535804308976
0.4462134370151537
0.4576970396487681
0.4422149772201693
0.4581949368347359
0.46555860056660786
0.4716838448847569
0.4659249864785471
0.46818169135337706
0.45205019992108264
0.5543496050510126
0.7120991937292884
0.8954342745033805
1.0
1.0
0.8916005028882882
0.40977699911884613
0.2537832034385151
0.34396640438482795
0.38389247045808556
0.40884424497240923
0.3961831057504752
0.37982462346775875
0.40208208471907003
0.421123523725125
0.420869860272043
0.4292996510132531
0.441481495469292
0.43934006974859924
0.45822334235490647
0.4529449183716152
0.4697626567003833
0.45851179386835117
0.4706668171834757
0.47037156783264933
0.5117502663427456
0.5058045468225989
0.5350320687513751
0.5383366518437485
0.5564713956151414
0.5556170995213735
0.5671414691109182
0.5689577400281933
0.5828430216618434
0.5974083571551254
0.6221509884904527
0.6276997635674801
0.6195342471498069
0.611635442812203
0.5883482199699968
0.5718271069131957
0.5957956656276069
0.5986531147379488
0.5928248445127112
0.5960313372767485
0.5800888377755559
0.585353413406265
0.5698655140659089
0.5737259084662061
0.5604418708898098
0.5729418838988038
0.5415563684884299
0.5514039935344404
0.5418535510446814
0.5372576330286486
0.5296892589551099
0.5382555442689011
0.5237451694309183
0.5254550253911144
0.5547962168719465
0.5742846862876549
0.5575999724588632
0.5468844083280399
0.5216020843090589
0.520627914542559
0.5301948568072843
0.534526126993202
0.5443387304831975
0.538356382333073
0.5549926652371885
0.5369519873052733
0.542904345867237
0.527266561188169
0.5430220541871967
0.5317799293135754
0.5509565599825372
0.5372680706235667
0.5415875345684549
0.5114022902983131
0.5489377158227005
0.6847285003102399
0.8567081002990887
1.0
1.0
1.0
0.9345494152379615
0.44652999291739437
0.38677638487890315
0.45031835204015336
0.49897644170586775
0.48915215599536516
0.460418757630789
0.46666424948812707
0.4974584886892468
0.51257300999492
0.4996911666837751
0.5088164470437768
0.4968382110572375
0.504492925676189
0.5026144266772696
0.5073805903275133
0.5080610361687062
0.5228399378568847
0.5210912744594635
0.5322844132415291
0.5249492782942451
0.5461046857800191
0.5384124682709797
0.566040845315106
0.5732146778887393
0.5895765358250816
0.6083635607935125
0.6278117155770403
0.6493765457950371
0.6363906935613024
0.6476371491705673
0.6594030079109987
0.6599754750702689
0.650979046886893
0.6543845043109839
0.63153178057702
0.6312853479352004
0.6130352331803886
0.6122432058886547
0.5880489989901159
0.6024921255988634
0.5990817232037086
0.5944269928652423
0.5852593544972347
0.5769837400431566
0.5617961291486967
0.5358143308892378
0.5306258635912131
0.5599436027286774
0.551766611562222
0.5448372703984893
0.5481608274544921
0.5552386220241634
0.5459246589695431
0.5459680965823338
0.5583612431964349
0.5504580925636631
0.5333847666738345
0.5176914368549169
0.5405404535631827
0.5462980283167908
0.5373365072525733
0.5139249694566967
0.5061132933799424
0.49189881157146775
0.49953530166955373
0.4938690326529246
0.5116875853661397
0.5021160687432156
0.533620237963067
0.5255153027017035
0.5459324213764107
0.5309796735304949
0.5502759983033918
0.4886109430319162
0.5338497855973771
0.6646707032371092
0.8222224503795518
0.9950856109538039
1.0
1.0
1.0
0.7317590979438997
0.4008708708383423
0.37003897564623833
0.41911618817270835
0.4724464687068174
0.46329135024763995
0.4474895830124857
0.4211992648433075
0.45886989389330823
0.4443162118405496
0.4683046107281628
0.45777866773499076
0.46523284796483894
0.4614424895371675
0.48085739298125485
0.4868030767439837
0.4903716438998038
0.5141213657652508
0.4969932385849806
0.47985525976030924
0.5167302966864791
0.5138906790127125
0.5337260220360471
0.5505748504154463
0.5692906621481183
0.5825174950834933
0.6006769104872317
0.6163090584485402
0.6064169240637963
0.6375973906867721
0.6386760686968052
0.6731986270604169
0.6555050853040694
0.6670827781242689
0.637306500615359
0.6199553310811441
0.6000521279196008
0.6073123022587221
0.5804403577598094
0.5763211561725319
0.5675419135098592
0.5633752528075961
0.551172516710768
0.5518914129748842
0.5367237593695654
0.5234910166334038
0.5330444313321856
0.5183592527413078
0.5319068980801521
0.4951565238538814
0.5159957385184377
0.48032149852679246
0.48790395216849963
0.5039757036688449
0.5032616950622073
0.48883659627580817
0.4934726310444361
0.4854449511026691
0.5048147690767701
0.5024457328162055
0.5328418490200943
0.5403152168523517
0.5540313506891879
0.5618430386608557
0.5678699062674043
0.5332691547396718
0.5282064900147679
0.507677178555626
0.5299366728444489
0.536644231693399
0.555806589523239
0.5581923909844067
0.5570857437311519
0.5095243767569697
0.5132102595793401
0.521167300166425
0.5350441468217203
0.5542284681036936
0.5342156630556553
0.5677258142382955
0.5235349358182002
0.5265165509249906
0.5873696026602394
0.7713226897492031
0.9170193488349035
1.0
1.0
1.0
0.766458291483197
0.35709670784641884
0.366372039168135
0.43039661846023547
0.47722699659841145
0.48260707852103985
0.4665109336375025
0.44264552151268355
0.48699614066193797
0.48863008969196053
0.4984675712230164
0.48986181785853394
0.48921647386677414
0.49771988627600167
0.5218502699966312
0.5147000161492394
0.515900818134438
0.52853301290735
0.5276924902154698
0.5099760102343874
0.5440466844647018
0.527408162589524
0.5563738678501468
0.56307521449862
0.6184232761502376
0.591491900010062
0.6202342240008776
0.6229305153567142
0.650478845308719
0.6349683898333172
0.6344549937964197
0.6385685788452229
0.6638725871842951
0.688911036581364
0.6895401956124918
0.6743537689100985
0.6747545960736197
0.6350343352857151
0.656418736254798
0.6427142029742436
0.5820489419040947
0.6248637154015897
0.6119192056741289
0.6284301056139278
0.5967200922583518
0.5959643400582306
0.5786789553336571
0.6104879678171267
0.5865992511425319
0.5964516324542855
0.5793008918797806
0.573615705663057
0.575893097609643
0.5692396167112784
0.5746018233941514
0.546833773080987
0.5425762932540366
0.5441659152289857
0.575338523995285
0.5903904051134771
0.5937066561486736
0.5917411826826565
0.5860184523880355
0.5644742790651012
0.5687046648518257
0.5602048292355174
0.5689039405477395
0.5732685131543782
0.5985452760399719
0.5832115652973311
0.5861489945136048
0.5602967096093933
0.5636294360908655
0.5351782790340538
0.579117455396998
0.5853176555383708
0.6011027485880294
0.5968110504651405
0.6013637074934519
0.5766639792518269
0.6439714461921808
0.8112951862499642
1.0
1.0
1.0
1.0
0.5545141966138809
0.39913352609303887
0.4704631730243006
0.5505644212418096
0.5225416996427547
0.5059700802400868
0.4820487412186555
0.5401521404991991
0.5331649778664809
0.503054375202588
0.5171553752440071
0.5432720043633179
0.5259070710546069
0.5458391555107375
0.5470288191355873
0.5725919715848754
0.5830078968985616
0.5646069461728589
0.5599925705269152
0.5914767152456752
0.6226310554490475
0.6262533061704498
0.6500315413597096
0.6808049481541728
0.6867264313170882
0.6816696797461089
0.6789993535138453
0.736230352302175
0.7300287732687447
0.6972117150866717
0.6944093462019725
0.7040754440492425
0.6838462490053855
0.6647283678389548
0.6527354540658704
0.6520192422960165
0.650224440926347
0.6139559143266899
0.6454023972270203
0.6116938564768364
0.6226844098666684
0.6092011760047434
0.5936914172565041
0.6164711772184539
0.6237323046230203
0.6189861781043776
0.5992564182027836
0.6266771709133507
0.6073333596013496
0.6160405479271306
0.6251263590812852
0.6440397782597866
0.6676917723231829
0.6733349631843896
0.6186458164850246
0.6332314330454073
0.6206678797968188
0.5990542757588997
0.5895662006958715
0.6128670947305179
0.6173929740572092
0.6203230439276128
0.6055978095666874
0.5996083669337469
0.5916683932033177
0.5943797195091725
0.5848777156490773
0.5655114177991107
0.5821538386966605
0.5837636577313565
0.5926941998817024
0.5648446878683359
0.7078592342047135
0.8463247507941116
1.0
1.0
1.0
1.0
0.5744481705248059
0.45063490077399593
0.5192564792900929
0.5759037197845751
0.5362358840057546
0.5171405173934163
0.5102091352779297
0.5367537666369447
0.5563347030008758
0.5564092565307941
0.5546926432177146
0.529383048061254
0.5494268162571622
0.5106394961647702
0.5397679041942113
0.5755676691321915
0.5537531724387131
0.5724344747540273
0.5494902032602751
0.5548763339674874
0.5800243876169313
0.5692808428227836
0.5910781622705409
0.5993869884325925
0.6105923824454961
0.6179626499235203
0.6733414722322744
0.6629966978788382
0.6125234516795259
0.6497926649884521
0.654668926805752
0.6413758639867672
0.6026090634658121
0.6128105113608202
0.5918984028875591
0.5696143493637663
0.5693350104677048
0.5582298323047044
0.5619768053128875
0.5401685798095349
0.5525331405082452
0.5544925702968337
0.5265614267006606
0.5320821648151451
0.5506227905106894
0.4997056424440217
0.5521242721932046
0.5542633077808409
0.5682917448683737
0.5723816211753037
0.5988886758764114
0.564323117990871
0.5640046153705693
0.5553139532134823
0.5899313649755092
0.5616742585652233
0.5604366246212488
0.549933789500564
0.5318006105794417
0.5318839105914374
0.5476069417810636
0.5364076038542811
0.5461316006729047
0.5378340487759665
0.5379772326740933
0.5422041015061979
0.5414113001942942
0.5185474503313504
0.5596950630926143
0.6153113971072062
0.7956143561504708
1.0
1.0
1.0
0.9555575983270879
0.5297140953684814
0.3907564359842885
0.43854989348622214
0.4726883235450338
0.46211947970891776
0.41107985690376914
0.4368949777600009
0.4312926249890512
0.4622592000706346
0.4494765039387218
0.4800054761549314
0.47202600752553003
0.4808051826333169
0.48368176816309394
0.49528384172212475
0.48770067621202645
0.4998589854525844
0.490483573934226
0.5267959110639148
0.54731568775373
0.5081512492915661
0.5241082170243381
0.5556854797042716
0.5653384588110797
0.5859101553972684
0.5871322983639407
0.5873711729569512
0.6172713792706847
0.6309983600548084
0.640849326471639
0.6108589137637253
0.6132607989492681
0.6084472330239052
0.592345076502065
0.5686487784056161
0.5716125797747955
0.5667454597514815
0.5738750134950941
0.5857441525792275
0.5465489407063797
0.5358707320206628
0.507497875163651
0.47399262398609093
0.5114423913428106
0.5109960288270974
0.5026923295228964
0.49477154458990535
0.47770730506404674
0.48252824667693145
0.4711131932941332
0.4544618075031007
0.45004637752702725
0.46746027012352254
0.4476883635055378
0.4643116358896049
0.45914978915502747
0.4793269149706784
0.44846875103983097
0.43637910066884905
0.44649461705383836
0.45554503659077084
0.46215359450973825
0.48781617605501915
0.5042598720568653
0.4952199058169654
0.5089789259780612
0.5135256266692328
0.5100697599417661
0.5025681206194731
0.4864983176999508
0.4923846185066755
0.49356011909906616
0.4849749995231275
0.49748367397821386
0.4972530640451671
0.5093927671253852
0.4816602626708203
0.4877224863378207
0.47851327710946173
0.5199153373345474
0.47664089322525555
0.46917685420081867
0.46195433100435845
0.4762370484954176
0.4657203798532127
0.4508781037069204
0.5168410960595238
0.6674843579121885
0.8213030280653925
1.0
1.0
1.0
0.5607538764206085
0.28859529897260633
0.3238204569643612
0.3779101951914029
0.42400061326407823
0.40090519536730074
0.39023146968169364
0.3943808847287881
0.4072883634437924
0.40931891331910375
0.41902822297375264
0.41748992039038313
0.42039197216438523
0.4138930175777153
0.4539761887551256
0.42235405765933987
0.4273968496865419
0.43771179552685
0.48625440602991965
0.45752585846906735
0.48006088009194636
0.49921620344759415
0.4931151812589919
0.4974106251296587
0.5142713538139928
0.5112487937560226
0.517660666792312
0.5297622796184219
0.5516772212190524
0.557197165926941
0.5544977580838599
0.536112373141637
0.5323479097790613
0.535026371169727
0.5390113405919014
0.5260829718000004
0.46701237987980343
0.499377819231678
0.46735636044709006
0.48534631147890883
0.47118333994498995
0.47220510608582245
0.4708418147534066
0.49331569174195866
0.44881655303686563
0.45917846342046637
0.44951863773134226
0.44726479018652776
0.45910460118640983
0.46237458035971757
0.4540368064691789
0.46529561594232227
0.4749314571157745
0.487972633034754
0.4974671031263827
0.5146040794745051
0.5460634351688
0.5522350796593978
0.5868172225025783
0.6080578791571665
0.6839296539809757
0.7546771460339394
0.8010176998482248
0.7150062679697122
0.10081483026901035
0.0
0.0
0.0
0.0
0.0
0.0
0.013256066300364022
0.1342511049645005
0.20125150484390092
0.28017081274724637
0.3246570608856277
0.4251401557738304
0.5419906410347061
0.6182680945412267
0.6852581281513179
0.7202930978278828
0.7594306010373417
0.7863566713974055
0.821986293159117
0.8471098388570484
0.9043217779343126
0.9255497663476131
0.9508237705045408
0.983863907094481
1.0
1.0
1.0
1.0
1.0
1.0
1.0
0.998820445576162
0.9676054188561061
0.9199970464138806
0.8752269496521698
0.8279838102152768
0.769030614747696
0.731476200291009
0.6826784880154418
0.6477244733727912
0.631994223877582
0.613240719973834
0.583659104296442
0.5762301864025606
0.5638356190526294
0.5430852276976167
0.538131835663694
0.5499856657403829
0.5457688861022596
0.5629651322661471
0.536147359121412
0.5553297954581057
0.5348656096815659
0.5411019337188665
0.5204632194796903
0.5271437091371516
0.5120373938526546
0.5236835000276768
0.5051680491273126
0.5232035903540155
0.5165577113452469
0.5012713277412618
0.4905352313158059
0.4756750007373533
0.5011787889350097
0.4969920703160793
0.5040242078733175
0.5137471587159446
0.517909581111486
0.5258746206368888
0.5282622335599733
0.5289814979013076
0.514211363324049
0.48974652859798373
0.49247762599261635
0.47785508681507016
0.4878510039822073
0.4822449295192229
0.4862322421307238
0.4844103123736427
0.49725213914625677
0.45515380964543023
0.46417882048793385
0.4711755637948122
0.4736089699482888
0.4656571137711486
0.46559259174457274
0.45810268111807695
0.43455991829704077
0.523527212092684
0.6933783171777052
0.9067338552434124
1.0
1.0
0.9553266517300303
0.377654655205907
0.3452497359679681
0.43191252200441166
0.4096471214079541
0.39894140053893506
0.3702900388088496
0.39380386503754794
0.409901578244379
0.4080119096209696
0.40194686842509775
0.41223967054476807
0.40294665225748616
0.4154479316949817
0.4101950242824901
0.4280910764246026
0.426407119731131
0.43470615092048714
0.4494315380309681
0.44895073557268567
0.44330529242963684
0.44553548858228786
0.4783187352948878
0.47654203958360863
0.48613413046410114
0.4934203136010346
0.5059692783615912
0.5098286508941076
0.5181714704346485
0.5198486041133088
0.5400349585141753
0.5255725980689316
0.5338933317772462
0.5142717929121591
0.5018645377392135
0.5079324210627968
0.5202986588922451
0.5212110947088627
0.5276849246102172
0.5382026468202462
0.5555604047645631
0.5477233014701754
0.5140259793032398
0.4961945198257295
0.48225957079471693
0.5011828711502366
0.48022969386909065
0.4826305056813638
0.4902802130122561
0.5304963394057227
0.5413981121358379
0.5802400484790636
0.5406041614040108
0.5439289131455156
0.4983148704653776
0.157583812409236
0.0
0.0
0.0
0.0
0.0
0.0
0.0
0.03332049504652348
0.1296177128323019
0.20478897453252132
0.31901148160362064
0.4355259040391399
0.5734982916495166
0.6619910554789807
0.7190522621159274
0.7368589879837353
0.7858152233162405
0.8056847203885681
0.8514610472136598
0.8694140809467565
0.8952050872448215
0.9067216577978637
0.963990013168004
0.9832956480119623
1.0
1.0
1.0
1.0
1.0
0.9697731286791536
0.9422203874926953
0.9203563481904391
0.8683393484417884
0.819215399548454
0.7679336747579081
0.7238524087119952
0.6587332668687987
0.6435350205533596
0.6029230333586884
0.5675258728801797
0.5426913746747584
0.5324197882177847
0.4984162489372543
0.4882892944543812
0.46405335580129786
0.48569175029217676
0.4742431429052657
0.4703396074707159
0.4707088764485837
0.4822350283325217
0.45216957473089375
0.4477151478529085
0.45093448443687556
0.4555005224667261
0.4521359986322171
0.44518821136532905
0.42980327142198604
0.43576245592660967
0.4115682155837218
0.40109628450693985
0.41384677107060497
0.43761952073649263
0.4293883174771295
0.422338476858377
0.422004910461792
0.40628013797956797
0.4181371470813035
0.4135224127775712
0.4241942206440248
0.4154022045605429
0.43520187033456254
0.41894827573342075
0.4291409959778032
0.3984770035688707
0.42648259713764125
0.4016065768699882
0.4232212413823474
0.409502559990376
0.42805394216766696
0.429416279876231
0.42595947633658626
0.42755189288856377
0.421603846566891
0.41021884003886433
0.41050187002262
0.4297706230975802
0.41364780277870833
0.4220561330785288
0.42377977462778355
0.43794016802089236
0.42106196316962874
0.422105480183283
0.4097340290654124
0.4269160476038086
0.4324289553279607
0.4306889303696608
0.42465972654769624
0.4429422791325651
0.45127207277246073
0.45309786519992323
0.44671418848976696
0.45323556276902605
0.4482165605366741
0.4475430735318917
0.4325442884021068
0.4325387974932712
0.40621994572609144
0.42163513564756744
0.40819743773917566
0.40633003151110403
0.41390997482578734
0.44432328669638077
0.44012669551824146
0.41600765300728815
0.41994387072033135
0.4152183479115236
0.4200128406497642
0.41666895057413705
0.4238969916513221
0.4273333263070005
0.42223157131611444
0.41177037491313007
0.4783454801566478
0.593791866079525
0.7615452350598183
0.9156194222480452
1.0
1.0
0.730304196116404
0.3116474272579509
0.20548535429227405
0.2674992436678524
0.31579715739560843
0.34807716342948825
0.3360202846905495
0.33728032125367824
0.3360469594323063
0.37495446500264606
0.3690854882856539
0.3802619559004038
0.3872604800492273
0.39130476448614476
0.39622090727440107
0.3894647872851519
0.3896245062912061
0.40631803676813594
0.4049259435646392
0.4084945580527145
0.41712317897366835
0.43333596049724343
0.42570831540695586
0.42070300867130933
0.42132384443920357
0.4404543571937249
0.43891537303097083
0.45647666553438204
0.46299366412849974
0.46708627861304386
0.4588743447748769
0.46500255486278
0.4766333762450129
0.47602621359813035
0.5042173464981905
0.5077710839029352
0.5194001405365255
0.5059243065948547
0.506745463305153
0.5085811037767846
0.5111825938586805
0.5085822569480687
0.5131395938269501
0.493643356187523
0.49591186160370493
0.47642032545266133
0.4628085020758898
0.45208768890874956
0.48102032157110175
0.46608885641587766
0.4796156731607154
0.4726823142562567
0.49250486375894464
0.5258587246370504
0.5612844515894793
0.5962875668779921
0.6088196688697961
0.6506893646111767
0.6348364598411245
0.22441783074931787
0.0
0.0
0.0
0.0
0.0
0.0
0.009156238645788673
0.14239101076848976
0.22911480375798576
0.31423207431873623
0.4000866026112019
0.5222195918619599
0.6224225199974158
0.6828992898107641
0.734065624551079
0.7752867998098915
0.8159854695477489
0.8520827037246587
0.8619488275512296
0.8720265792808994
0.9001379406500017
0.9295541673445824
0.9583567213241654
0.9814250620263962
1.0
1.0
1.0
1.0
1.0
1.0
1.0
1.0
1.0
0.9884648493281748
0.963270488777346
0.9177966131996935
0.8714382662623418
0.8213394334206644
0.7999294341314206
0.7567665219519418
0.737006207388753
0.7010818678391655
0.6842571671987978
0.6497568875748533
0.639587685670576
0.619865087753398
0.5974114861219315
0.5830771000995821
0.5692905081176936
0.5734566719922699
0.588453461020808
0.5826894000109949
0.5765875455530118
0.5800628516111597
0.571280344661238
0.564061910533825
0.557764874591166
0.6084424597521274
0.6985119860821221
0.7585321370535478
0.7907458997258419
0.8857205252935165
0.9958127802705027
1.0
1.0
1.0
1.0
1.0
1.0
1.0
1.0
1.0
1.0
0.9603652998292697
0.5283833671508359
0.31447564547187035
0.2670982849351409
0.23902566520295862
0.22051171358651306
0.18584440769841884
0.16915332422629512
0.13448717502189372
0.1283217607234938
0.09951636184672301
0.08637180994474329
0.08066006837229986
0.0826062305319768
0.07516389457985077
0.06624140841726733
0.035469070839149984
0.02507752538091097
0.0
0.0
0.0
0.010665747888998389
0.02487045280099478
0.03077804601393357
0.044240143730772986
0.06617568723385965
0.10660744601845926
0.12556143956605959
0.16337267952566242
0.22362376779018103
0.27018559541813925
0.305358571359997
0.3369877300066824
0.36041262182893463
0.4059050521492084
0.41197144296932364
0.43695133980666007
0.45235901399195433
0.47608377561716636
0.4792598650724959
0.4874844354338334
0.4803986322454453
0.4712060977416531
0.46927503684841537
0.4579720564722284
0.46751164767935743
0.47401004529128105
0.4808711702956109
0.4829367444265327
0.4967483314061414
0.495929106499045
0.49633334429065473
0.49874866209433694
0.5136725868445855
0.5298693891409373
0.5361944446317973
0.5330679599706769
0.5424021829878803
0.5292954010483558
0.5313526155210699
0.533780474831297
0.5502458077438378
0.5415069856233621
0.5545317656604005
0.5616290156546038
0.5630858909197414
0.5493134097152923
0.5573286127582591
0.5403825216631873
0.5344280803872297
0.5144257878184713
0.5195285160340902
0.5264453844011076
0.5415868697145247
0.5411004057658355
0.5422500712055589
0.5387180108942753
0.535269518283139
0.5344147661362855
0.53321854134717
0.5309483884913052
0.5278926936789968
0.5530316799917814
0.5427031003902435
0.548007404087442
0.5414354652866119
0.5465858724339507
0.5453301455198567
0.5667373219653682
0.5591695165135635
0.5606941730391759
0.5495493526439749
0.5556450369065813
0.5485128860693169
0.5474247036423073
0.5574639152139552
0.551104048147898
0.5465497084990555
0.5481698809441282
0.5391835111193191
0.5477675941623502
0.5469849357930747
0.5403979823091236
0.5222086271767693
0.513423122292961
0.5255042659310829
0.5153099058138056
0.542411080153707
0.5523820464074467
0.5323281069577462
0.516861775290123
0.5284652908095049
0.49451661093561683
0.5221112523832557
0.5200592293673869
0.5146138553706512
0.5214946984546703
0.5337657551487303
0.5263489094354392
0.5219186520335551
0.5188193729104993
0.5147432703014193
0.5127286489476794
0.5452862841942288
0.5643419625944878
0.5743712901353817
0.5627431591125347
0.5704247889954137
0.5644572385996303
0.5680637631490612
0.5534521084107319
0.5485965304312144
0.5496833869319355
0.5480061287187883
0.5422491674646299
0.5368704900177337
0.5344031830516408
0.544049894395654
0.5836478751797665
0.557534730522246
0.5758551773808172
0.5512701473574376
0.5580104982582481
0.5513748042963116
0.5276614940552056
0.5369531500925551
0.5241416290409471
0.6117308936777277
0.763908663117445
0.9394034499004562
1.0
1.0
1.0
0.5757999352693552
0.266258382592466
0.36282332277636253
0.3814365464807631
0.4404631163165374
0.41130495473196627
0.40905862676200766
0.409736805675516
0.463048008868019
0.4483025804768907
0.48592314787225865
0.4780571861699056
0.4782832801202367
0.4866926248270637
0.5403314746875634
0.44345648600219684
0.46007455042297646
0.48073590595871585
0.4929789065266642
0.5051980202430312
0.5220506572402572
0.5288617994881724
0.5489295140155768
0.5717119088047771
0.5955691079189698
0.5785896463287988
0.5712329563893355
0.5501251678921463
0.5498090561007936
0.6023055315982898
0.6056192458734145
0.6216981628203764
0.6308275478762194
0.6190341298247531
0.5712343794488033
0.6038628366687225
0.5729706092621898
0.5804675934681838
0.5913201559893942
0.6026110674976535
0.5922548959765361
0.5026154514855588
0.48051046352385435
0.5043374544702403
0.4857537058595998
0.4916955128824968
0.504695505444975
0.5324341143751606
0.4923669733327804
0.5352353738011724
0.5613397680475225
0.5928059522033803
0.6575801907897764
0.6224061783511824
0.6122436798585807
0.5613536895600273
0.03721171491927437
0.0
0.0
0.0
0.0
0.0
0.0
0.11719361968488289
0.1821447729549343
0.18663114351050245
0.30997562635346726
0.4646368098161286
0.5720770794068618
0.6575043498543198
0.7309176085619035
0.7982017817847938
0.8330806135330849
0.8193694402819943
0.8274499079127695
0.8759873658171233
0.8712327496649198
0.9614180533218256
0.962527484292217
0.9868805273194281
0.9986203840289833
1.0
1.0
1.0
1.0
1.0
1.0
0.9730302501569827
0.958726930365113
0.9015822157033678
0.8719767565490347
0.832566452372611
0.8286568311092266
0.7442103459243183
0.6964099784066157
0.6487832353523143
0.6425562655593009
0.5967541845912957
0.5920457415829492
0.5934012599715413
0.5648298097658998
0.5451486570367455
0.5503115860919067
0.5490417113993419
0.5693606127622974
0.6009205552830051
0.5745902395976571
0.5092251398229436
0.48567167868459726
0.4968454927312435
0.5367901637977464
0.517823124139413
0.5642543851268328
0.5242472829614552
0.5208359011218218
0.5273624303939546
0.4404478515631795
0.4809536965853615
0.5020025576139646
0.4915455751964951
0.4941454300241793
0.502867622666884
0.5264442840951803
0.5331210253124502
0.5167949176175304
0.5190472384889926
0.5029845293608343
0.5055574532454263
0.5220425410783219
0.5185561430242192
0.5361740360265286
0.5473321706855246
0.49690758226762044
0.5042947430885338
0.48719870369895935
0.4805124571847553
0.4962702514680856
0.4940126644951974
0.4917194104778499
0.5157258219254205
0.4965333032166523
0.5242320521623842
0.521984779808704
0.5250351769253465
0.4768429085538994
0.5308586609478139
0.5428764915052313
0.5349602805466526
0.5457351181576484
0.5378744217439534
0.5396624239008783
0.5113413718607587
0.5139922156617746
0.5009755323672557
0.519192769746273
0.5157874174338126
0.5269657810577516
0.5088461043550006
0.5450461513838675
0.49044016782588684
0.5076468841911563
0.5021030515970868
0.5038593459722113
0.5119388473366456
0.518337321615518
0.4801664948456
0.5386502256206176
0.7258154615153165
0.9359149684642499
1.0
1.0
1.0
0.4448520064764333
0.36338720424907456
0.44333855734444577
0.4272564644292549
0.4029335770273357
0.3939411222577027
0.40947232426741287
0.4255419325067901
0.42387704065660126
0.4428883479863612
0.43470566721544124
0.45432451401872703
0.43674478787104015
0.43703837558029834
0.43657052121311357
0.46496590014007744
0.45803066815676685
0.4731905376809326
0.4713182846706931
0.47498949828029824
0.46390169702285017
0.4752524269478588
0.48128372098850747
0.4924203803572489
0.49023566675633284
0.4927929083721276
0.5066960265359193
0.48821218301362046
0.50667050739157
0.5105124990672871
0.5317280293531195
0.5215302193353741
0.5310827246721261
0.5206150938383218
0.5275155548918664
0.52326337107876
0.5140643630299356
0.49542077257529976
0.5132525963073621
0.4927429271013321
0.4979473271669229
0.4874414225358133
0.4762667204610108
0.44835916866034875
0.443172872461444
0.455368838947461
0.45987828908775474
0.44552655830826665
0.4503077191759514
0.44797142288076097
0.45849324204976255
0.47481672910613637
0.4831946190030775
0.5188487559079569
0.5305915391365825
0.583704468307697
0.7066417712365584
0.6927462773133798
0.4595238435545861
0.0
0.0
0.0
0.0
0.0
0.0
0.0
0.034061243239387994
0.15586754686495213
0.23934181854808187
0.2751383721526236
0.3199663032847105
0.45260009680649055
0.5704957782737312
0.6247776076782706
0.6497845772701937
0.6944273665890673
0.7126483594085453
0.7446333396048312
0.7921608803272141
0.832056088131694
0.8615677311346716
0.8807729146673366
0.9089052080660022
0.9200193072186049
0.9301730910414197
0.9533638990793201
0.9615359465993268
0.9554458083800306
0.9599112168784105
0.9142743391914447
0.8959132630402677
0.8564274600212134
0.812737797767881
0.7659054574619762
0.7279914326615538
0.6809332608546834
0.6450176398656586
0.6034274813644842
0.5673746871290708
0.5432407014772227
0.5213893747762416
0.502493776231487
0.4894764940844715
0.5202398045435715
0.5290470597976198
0.5810054788259282
0.6579075529618361
0.7138780402421157
0.7809663233050838
0.9222580459672759
1.0
1.0
1.0
1.0
1.0
1.0
0.45293876825264273
0.17719501370540108
0.16962505241665676
0.19299077382475377
0.17147772997546734
0.19548187402816608
0.1883451813464317
0.16801822694647667
0.14363851897227073
0.1371600196477051
0.166289966426117
0.09903747395661693
0.056589274904990106
0.06374214716849771
0.06314045226758794
0.036163676274857524
0.0011067336566860319
0.010549662066578591
0.01294794805468511
0.03413640351948786
0.05795882986689689
0.04493524173415793
0.03886425061168133
0.022454294392029707
0.034064003833691105
0.03457653514040952
0.04858941650868189
0.07092522152916603
0.10078661109565404
0.1316091619374443
0.16666749450606516
0.2048044773692162
0.22452927184779004
0.24838731644500975
0.24464506405667003
0.2772269093589721
0.29749845281870857
0.32943356506320953
0.34188528879400193
0.3660516147971619
0.3666007701485405
0.3812073575301855
0.3683123215865199
0.38065341253219387
0.384692249785944
0.39912931559005715
0.39764754146814907
0.40766014206408335
0.4140684421145104
0.4192604318783452
0.41686969191764023
0.43537722261668127
0.4169769930320847
0.4393163602947566
0.4378272109316854
0.45048511166459815
0.4450872310506953
0.4520976072571564
0.44583542091897155
0.44330319394851453
0.45495183417422896
0.44945877519680516
0.4566490127945458
0.4547555201097124
0.4618297876192706
0.45828601800478885
0.4632389123169004
0.4638883390654883
0.47209004332295323
0.4588653936811021
0.45735263107532054
0.4576476260336432
0.47837988382933877
0.47696518918765685
0.49159939515601236
0.4761027017682248
0.4861126505115637
0.47610845422754816
0.48016429249121534
0.4780583283057765
0.48425337702707916
0.49915420793514453
0.4824679605335674
0.4935888728172266
0.49311451539886475
0.49415923720795074
0.4926405130476601
0.4957387561366671
0.47816627678791024
0.4829006999005695
0.4796314369378177
0.5070988796135298
0.49626236363227677
0.5112128353810326
0.4790447597537389
0.48855306804227405
0.48224709900731194
0.4982165514252081
0.48926429778930985
0.49669706849858103
0.5010625673678771
0.48932290480170926
0.48970174356067037
0.49058565038989527
0.4784507005877245
0.4692874548348591
0.463116915548125
0.4682614558606093
0.4846929580109383
0.47450695317466884
0.470530610023492
0.4844590780821957
0.4957968144278236
0.4841922282554796
0.48940592865725324
0.4880715934524125
0.505375772777088
0.49920588517590014
0.5058139858727413
0.4998633442147427
0.502993794581255
0.4974054854760273
0.5117807696309213
0.5095010878882137
0.5267418166582529
0.5508708435395062
0.5560227058483612
0.5445063565260324
0.5547225879100405
0.5320774408625967
0.5122949204815329
0.4919926667835307
0.48266157760293016
0.486130345875706
0.4910828875049371
0.4781963626183317
0.46827472758946903
0.4842946242824159
0.48019826763753065
0.45480640001407335
0.4337490358382139
0.4471939398503576
0.4610730626651535
0.47719273729529565
0.46597877480612687
0.44969383507565325
0.4305310976077963
0.5313176266885064
0.7215229257858844
0.889042157834648
1.0
1.0
1.0
0.8571179894956353
0.28595123872529754
0.2801553175800597
0.339555051534533
0.3548605063481549
0.34911885664203357
0.35021116540078
0.3485983741041533
0.3716629964882951
0.38654089627579913
0.3814963961520171
0.389581781920737
0.3859459185687341
0.3982286935011225
0.39378562390936095
0.3948566888855699
0.3877335564326915
0.4076327832565824
0.4062690571471064
0.4197791636789123
0.417976021774453
0.4231483174310333
0.426426858926197
0.4435724005188485
0.4470309880142846
0.4632152660705048
0.47702903088196935
0.4664327790009543
0.4809870764154809
0.49827556455613664
0.49397379381119233
0.5010516471924158
0.5124275036999182
0.5129454706869978
0.5349127724415272
0.5394493193329162
0.5558273522874273
0.5507903518553698
0.5659984938905391
0.5599414291360805
0.5599637253140821
0.553346176716025
0.5788406171631912
0.5656561259917481
0.5718030934391033
0.5537491184345111
0.5615175662066201
0.5434978940399289
0.5359342153928367
0.5191457840165755
0.5207425650349549
0.513016221103521
0.5087705365839106
0.5047350210149191
0.5052471004462158
0.5001201139266799
0.49568807901487777
0.4831568439772007
0.4864255220699795
0.4910688394400803
0.4927043316386621
0.5111896314413878
0.5101867254499615
0.5447231775276414
0.5228255745501561
0.489743157404461
0.5710304141719454
0.6720533283296966
0.6975531054769786
0.553973784315065
0.0
0.0
0.0
0.0
0.0
0.0
0.0
0.0
0.052889555087213845
0.176982228186204
0.2648945203860885
0.28719532180373286
0.35442010151421177
0.4454262385976945
0.5926508392418499
0.6324711670985069
0.6652622983533332
0.6768264785642237
0.7333228805848089
0.7490042228755529
0.7704948429595053
0.7926602466341018
0.8316425734641035
0.8371128008483367
0.8668030505342145
0.9168654035818518
0.9192300182749129
0.9291379594988936
0.9685776577065116
0.9370584183162162
0.9579585883200096
0.9457248586017257
0.9582811057833247
0.9477114970457405
0.8875603039840858
0.8565275129830059
0.7926835374407422
0.7670075415943971
0.6967820381782384
0.6811686487688023
0.6343114233806783
0.6058171789089742
0.5772479349533134
0.5513316076483742
0.5113354969899745
0.5075117864018622
0.4713771791128722
0.49204629062757316
0.4470455457861326
0.45719887048682856
0.44344659777491857
0.43782687112235186
0.43380690472986466
0.4524595244812023
0.4306588033533135
0.42493306837632705
0.4371891959541642
0.42908302588169356
0.4120737338946051
0.4051052541177171
0.4075441098449132
0.41086526222653214
0.4264328912855911
0.41247927559048103
0.4228739447468078
0.4109605502336426
0.42644142260407436
0.4011011927719378
0.42931914966059787
0.40373370508912965
0.41889693634509867
0.4179310106639914
0.42871673584232955
0.4252378211353262
0.4352319074934097
0.41244685239245493
0.42666647438835226
0.41199302076551547
0.42275746424287525
0.4228966845825507
0.4271995686676311
0.41844659167829334
0.42672903300052595
0.43528800222825853
0.41265186445611884
0.4186336247651125
0.4191113236946352
0.45383807303718937
0.4668037730040222
0.4535571106311117
0.4562383217957512
0.4684915168403968
0.4602550394983639
0.448524535941758
0.4232188381429379
0.4363720608758799
0.4332712899953616
0.43672857275996646
0.4221662339267276
0.4147475036947532
0.4283729883109208
0.4318577960674129
0.4292867235879518
0.4136861108461674
0.398861771374935
0.4108786219470889
0.41662669644899986
0.4376270046046331
0.4268270351277538
0.43932157313576764
0.39903522434682
0.39265061796753853
0.49747476596045387
0.6657144653562986
0.8038359538114535
1.0
1.0
0.9965905418167074
0.5434458661374866
0.15694091255528755
0.23342237304213004
0.26749485073873325
0.3326968701796317
0.32761590940233615
0.32839720379201054
0.33740183911428784
0.360838916095103
0.350441727987335
0.35905219474294536
0.36719960948443864
0.38349456929118564
0.36086209358759536
0.37386818065913385
0.3755977608554849
0.3954231464974286
0.377852195962946
0.39550673297763195
0.40001876654875357
0.3894022187859242
0.4048232257705145
0.4041734480525022
0.4142679506588903
0.3945024015451085
0.39059187507127247
0.38964849518081557
0.4122902873197754
0.40499983419061125
0.4258573803507602
0.4277251685340834
0.4283689152097033
0.4406106297897714
0.4709912694564138
0.43735625570586156
0.4479423681701674
0.46670448076567067
0.4601262053025164
0.4714076398220038
0.4692459065203655
0.4484095300611104
0.4424576489602452
0.4692895133429804
0.43945424022380103
0.44307260464605136
0.44315911246182454
0.45242386276787955
0.4529818904951954
0.4491557636958635
0.4410747677425874
0.4554387071962971
0.4439437492183041
0.4676573104073892
0.4693873795333875
0.4472617368772879
0.4349899067074151
0.44504955353785725
0.4559372091469793
0.48391447710451113
0.4803328365508753
0.5014171027994206
0.49223844071671535
0.49771907173373037
0.48061849341416585
0.4729468751198822
0.45617470326428655
0.4668846713339819
0.46331495245761206
0.4626878793367542
0.4743977281834589
0.4925036750410561
0.5116299231901617
0.4846893211326854
0.4684686862219011
0.45690035366357495
0.4766347050753703
0.4724050762073567
0.4794895188204736
0.470012450410411
0.48216100216822755
0.4488079534702626
0.4865918290964018
0.6193841628948127
0.7918608324773448
0.9972966277867762
1.0
1.0
0.9496831307258532
0.3861555280746879
0.30429855547695067
0.38475133253947785
0.4057393752775075
0.40100717005497943
0.40052713704727366
0.3937588556602386
0.4007200394016116
0.4336901486520578
0.4294509547619437
0.41345061750964235
0.41996802816929585
0.4297523509593388
0.4288045622484297
0.4417166347670509
0.43735572845971993
0.4476471497496994
0.44958622806117104
0.4655908060288437
0.4768117280372075
0.49944373372949996
0.49406681508393635
0.5133032001122853
0.5290066762176431
0.5435466768752442
0.5485619878516302
0.5683579986387018
0.5723845202138063
0.5766106256565686
0.5844243440321246
0.5941482651818147
0.5964360310093048
0.5857941346052316
0.5734022705576259
0.5589292072636483
0.5624384181971342
0.5465867589373153
0.5473535631497948
0.5362807572388603
0.5334908668018652
0.5180181536009584
0.5114047856998828
0.5053115499989945
0.5129546583044681
0.5160819912330892
0.48966305221708595
0.4799273540391578
0.4778965834300334
0.46270148545760525
0.4588281358038512
0.44997793539216496
0.4529039987212247
0.4610748150180896
0.4604917891638152
0.47939229345462336
0.48493160806262836
0.4954104280162304
0.5045405539735687
0.5163913836156121
0.4948573762777563
0.49918187726184104
0.49166390434932145
0.49831040811568883
0.4781141973870559
0.5034360351097702
0.507771205924361
0.5216267749655656
0.48485231305065735
0.48942051351219346
0.4753177266712109
0.4866835619713609
0.48456594311314644
0.4933560288134956
0.5027572331230254
0.4843449552025361
0.5485276217120032
0.7304795717603921
0.9068932328344073
1.0
1.0
1.0
0.5561461517512715
0.3324166548304488
0.4301567587291572
0.4524480225798949
0.43680329159046155
0.39007045216920033
0.4003542005973088
0.42077822716899044
0.4383175376967783
0.431559685692181
0.44234855154385855
0.42690782967010293
0.4447125426149971
0.43470790358964984
0.43743403782603807
0.45401964322133354
0.46704592459376226
0.46698425504787877
0.4783429149916615
0.48672958178401815
0.4832292192904398
0.4950188507601247
0.5093056971211303
0.5230309087415657
0.5339636970535246
0.5612224066660393
0.5473231697538296
0.5638338697569452
0.5717070854543529
0.5894330124451479
0.567385317774074
0.5749240956130643
0.5696964013529289
0.5687550306382854
0.5378760173387054
0.5208725146670717
0.5133475548407468
0.5121704445972075
0.4906085959530516
0.5190467796522075
0.5073257308868324
0.4994514341980373
0.49609598214639467
0.48277513770719016
0.4722707659099842
0.46238293953428056
0.4619018936990275
0.44963916026543344
0.4635346227300257
0.4469239096264122
0.44403681846084614
0.43473715233023047
0.4298473493522509
0.42880185506047297
0.4403150184395452
0.4421132139297703
0.4544161992849176
0.47368146417796886
0.477845603030579
0.43868394432477087
0.4514338357259328
0.4288055477772804
0.4417845491954749
0.4386994545191639
0.4447479121027572
0.449370350583593
0.46672057063725997
0.4482820165417765
0.44176927310536424
0.4201787936776477
0.42611764767064103
0.44470637429290816
0.4289861355477738
0.438210269181124
0.4543654864725492
0.46123356029811025
0.42274892435540956
0.4707991059376301
0.637562521407978
0.7965657041851784
1.0
1.0
1.0
0.6032226557460597
0.21978537110270163
0.2823618972222746
0.33457887618352655
0.37231347822329613
0.35531739354758507
0.35076452643715295
0.3913788370618187
0.4031394392119963
0.3802144140288524
0.39271442035797943
0.39163243274252174
0.38702858923525485
0.40812990663278886
0.4155712246266014
0.4227358212969565
0.421251461460852
0.42720080535198457
0.4449051198277186
0.4483157190377677
0.46719699184791563
0.47794265345382386
0.4949511606114597
0.5138022667072184
0.5123606348761461
0.5314388539964731
0.5345806467282147
0.5410985204657799
0.5447008800780793
0.5460397611483359
0.5376663513954142
0.5392070088302209
0.5184137557139179
0.4999875728108236
0.48084829486248487
0.46464252237095616
0.46462192808251157
0.45097871523718275
0.4529740937431911
0.452735166731807
0.4355322571241468
0.41989105967128176
0.42531657318376903
0.41909212073933044
0.4144302964853096
0.39931527120675536
0.3997744826888942
0.396332302894786
0.4038118158514692
0.38307595699722874
0.3779812986980843
0.3630934660287003
0.3937162281665875
0.39028394384498827
0.40446050785516724
0.40796011838314505
0.4329773720142084
0.4092053044361824
0.40001989679251226
0.3736299984904995
0.3856662029739052
0.40075197160645326
0.39806632391825636
0.4166467330608076
0.41835007414146136
0.42306267988664387
0.4083685212378527
0.39849808480641835
0.3873664157286116
0.39663724666428796
0.3892876496279157
0.4013426815179121
0.3988887807737108
0.4105532096400533
0.38892737719597664
0.38519027149406015
0.4372092144365058
0.6172640244928704
0.791064502741072
0.99785678318633
1.0
1.0
0.8060965040145934
0.26437025240086665
0.18891097360481535
0.2651312427429902
0.29596525339071933
0.3197526787552694
0.32079249185786995
0.31703409545274763
0.34484556845743025
0.3586904936225489
0.37872025204120374
0.36411161113466023
0.3815687112801589
0.3679967424198453
0.39512809446156333
0.38329645890031366
0.4057016664063625
0.39464378023147556
0.4014471600395164
0.3947339789490485
0.4056882831216443
0.4130598407358718
0.4308438677422948
0.44793999781552796
0.4775263218552454
0.4798450331331705
0.49084540244347574
0.49374169498185977
0.5111168177528074
0.5195475419241509
0.5308122493977327
0.5354084223523138
0.5428965085174013
0.5391108558319087
0.533370321852839
0.5198596708072917
0.48960695795492803
0.4970176149281693
0.4891966335816614
0.48649649438182496
0.4849768180286704
0.4890393512985238
0.4838231653962225
0.47840098498396444
0.4763978703427685
0.4734034315380968
0.4704283649357488
0.46864716962269404
0.46256137653802415
0.45905146371867855
0.4612500797898331
0.4543904515298679
0.4585835171178834
0.4699076844372446
0.49056542450379015
0.4753979338935867
0.4759667711038135
0.45343799661118067
0.45290881481569434
0.4341990748704155
0.44892427092807796
0.4351601217156378
0.4570649375001653
0.45124106268089664
0.4669577278697769
0.4514687243110155
0.45447855174509266
0.43635618782922964
0.4581862190606554
0.45401932298756353
0.48903827154849094
0.4630259402696849
0.4600565107891942
0.44670157591862286
0.6311793997794235
0.8340028382323066
1.0
1.0
1.0
0.7978977589006245
0.30316132320192
0.36904815353146975
0.4040966691217447
0.41133116202086056
0.37386992367870836
0.3664764526818307
0.38326581899094647
0.4078938415347583
0.3881270729978901
0.4224064606200204
0.3915373012109017
0.4169270574349607
0.4138322537553652
0.43066701019517906
0.41514010944413016
0.4346026293950784
0.4348218622802458
0.46100325246920565
0.46839948503510004
0.49041115081136244
0.5028696012761664
0.5144630312885318
0.5199256243642608
0.5373273342607578
0.5666962936651001
0.5852402673800796
0.6104886997754281
0.5963872315006953
0.6040105589501902
0.603240814428578
0.5815196567529131
0.5785251767570011
0.5813163950256656
0.5523661721417166
0.5394775720401367
0.53924108995138
0.5464959558408177
0.5146179297776096
0.5234332678407033
0.4986549848691152
0.5025277752151271
0.4934160052672417
0.5118867860132172
0.4922609975940852
0.5062943966642026
0.4455458190181079
0.4379084421176155
0.4435047340671372
0.41938346061040666
0.4342859240801615
0.4352619564383634
0.46164043504985786
0.4676929760383614
0.49063066086290086
0.4583316360369484
0.45646573652208805
0.44537749027684725
0.4348004930634537
0.4370840696748899
0.44790732698524877
0.4389043964254987
0.4724274738454427
0.4554642520076194
0.47455061712832325
0.44517581308918286
0.47939213850665163
0.4053602829316225
0.43165146184818637
0.44285811231905325
0.44161998718214124
0.4378645387087854
0.43110690914640754
0.4354014129499271
0.4368977659719887
0.5832161240372621
0.7652798797019245
1.0
1.0
1.0
0.99533268850329
0.4605385327834636
0.27372436057450755
0.4080638123943355
0.3724817584905341
0.33274106243094426
0.335267677139206
0.32776911044614593
0.34854595134249716
0.3803857461664329
0.3872992658904823
0.3842612711092517
0.37273408173720257
0.3977837153674458
0.3901809831702557
0.3929825062907137
0.41384196311443455
0.4191332102958386
0.4263468168278138
0.45221048436256217
0.47254899853153703
0.47531713002029985
0.4742269968845688
0.48514372484621004
0.5003372859263452
0.49985488039513504
0.514265791187888
0.5439915403427794
0.5690989179819066
0.5690209330975653
0.5653269484118113
0.5491592400676373
0.542841274796289
0.5180125067137884
0.5207015393708796
0.5008647658123856
0.5006118776708742
0.48372014021723125
0.475491688298926
0.4678169682186252
0.4729614994295243
0.4651989677268757
0.45591551620672927
0.4542786227349624
0.45890308618587605
0.4578869020194696
0.429015906758485
0.4322524245560354
0.42281365220402256
0.41835599775846577
0.400154238163679
0.43207782821567786
0.42783434230592404
0.43381313188144927
0.44277897657541027
0.47070382227068086
0.46936279743158993
0.4359953081654118
0.4414418209534051
0.4530736421779803
0.43829042507179067
0.4555227464931272
0.45322698826581337
0.4666072775318365
0.47828944003812984
0.46671315587633666
0.4344416752561683
0.4447068793691054
0.430678486197041
0.4241786213290217
0.41757836237039436
0.43086501316256187
0.43646151919357273
0.4043448875914846
0.46941645316577096
0.6417088520386369
0.8461841429701954
1.0
1.0
1.0
0.673874497816225
0.21425740160643936
0.23486289589416356
0.2843752653900666
0.3519863181682853
0.32413414846947514
0.3411036382879765
0.34354264830113757
0.3889396465205196
0.39600254309517247
0.40999463296634675
0.41661730617064496
0.4196220894153731
0.42453619245142027
0.4287102245097477
0.4449479319398105
0.43371978293228564
0.4433085063369903
0.45494667592060817
0.48231576486701383
0.48915194381290733
0.5030434470857752
0.5120434781994379
0.5239453908409253
0.5293372897092085
0.5472733131568159
0.556169490563098
0.5767042887082403
0.5801456150687733
0.6071813368142701
0.6077739316964321
0.5826219741351909
0.5767789735559576
0.570828119452344
0.5645875844416277
0.5573813870197851
0.5446630962596791
0.5340156314941298
0.5266141101438799
0.5093081445835158
0.48879777283275966
0.4838032860382609
0.5073157079678591
0.4914327152706276
0.506631495120205
0.47882475390633966
0.48568954359169564
0.4773992415563134
0.4829273085306721
0.4641380101398414
0.4718054950573605
0.4605061021224581
0.4518484352825907
0.4488879150201585
0.4624310594063969
0.45588869068083915
0.47727894238361684
0.4769677262961178
0.489420651441035
0.48986356925300134
0.5032893252656185
0.4896628555115954
0.4779693810269493
0.4857703175051956
0.46580901022210697
0.4738510900936247
0.4703389470269519
0.466823961555625
0.4606463300289564
0.49670995285433756
0.5005457638608939
0.4915933080393432
0.4792900545152425
0.48522753969321686
0.4783585276735218
0.49166832690354567
0.4832210020470654
0.5019956214585003
0.4958363519801131
0.500116057451698
0.49172488556216615
0.4946407846650175
0.5703064438804173
0.7335283837118659
0.8879061570565311
1.0
1.0
1.0
1.0
0.6870244668689464
0.31833510738282406
0.35880141174602265
0.4104991285601164
0.4398375842835868
0.4284077111174927
0.405085371248264
0.40333956783392616
0.4208030372326891
0.44738399792438843
0.4637157780954536
0.4687426558949661
0.4654154522459549
0.4636053720520709
0.4480650465638563
0.4666172112999337
0.45724211054277336
0.47357984805971337
0.46813359634694474
0.48170852837279926
0.4863548668896763
0.4857161435639368
0.504363568112067
0.5152315076174823
0.5027007614301378
0.514453134338966
0.5430235538018934
0.5541711845680586
0.5737405563111075
0.5786153780591499
0.599186059819694
0.5918178273159558
0.6147487340373277
0.6131145440381769
0.6274886131829209
0.6199914440425828
0.6372763623644497
0.602603219660618
0.617842858415671
0.6062967847680845
0.6055143067144301
0.57843976127666
0.5705439451237491
0.5598850968294278
0.5727813977471564
0.5532272500545948
0.5562471956192553
0.5568431422257559
0.5474746439621002
0.5565645833622058
0.5705106449505235
0.5761965743364583
0.5682501918789713
0.5796790479221271
0.5612179273678746
0.5370922189862758
0.5324570010978796
0.5243075439172279
0.5241978643495364
0.5382779643544442
0.5168080498285086
0.49812191817258383
0.47996108621178724
0.4732450220653959
0.48370511694416
0.45437827786920837
0.42706414528786374
0.46617705123015113
0.46128264517504025
0.48629742441085
0.4604456457866336
0.4699559460234869
0.46487950135219636
0.4752160077756038
0.48841134175725215
0.44932917028836855
0.4732153636412145
0.6208844906296618
0.8019843686599651
0.9748944931019089
1.0
1.0
1.0
1.0
0.5230481425139499
0.28402881289403875
0.3672637432684045
0.42869203088900176
0.4170281216613623
0.3937384354360237
0.38627435851208886
0.3762054506316376
0.3887329628391901
0.41810909207695746
0.42799649205887763
0.41453205616982725
0.437065958337822
0.44454481212727187
0.4284931627176992
0.4262907766386449
0.43156318114439796
0.4387252839277904
0.4476085701019234
0.46095060545984323
0.47013138892685247
0.5006523173544764
0.5039999085101817
0.5257647789312068
0.5405041400881576
0.5663350295620695
0.5667062754625589
0.5910283364472172
0.5966078073015884
0.6427890575404298
0.6407224143794013
0.648860112442901
0.652192724430349
0.6474160317222692
0.6376918861856062
0.6314007762763952
0.6081877690502576
0.5995404003552253
0.5822884484745829
0.5779063549638147
0.5764747797416837
0.549798769689503
0.5424355572458885
0.5328565783729735
0.5417484261265038
0.5407036275515991
0.5303681769954147
0.5185962024358942
0.5092319102399256
0.505989683923492
0.49998222471086795
0.4629127342974691
0.4855851745050205
0.4497752457978942
0.4742601563289527
0.4779823492050041
0.4616563058258197
0.43866549267711674
0.46753395484505944
0.4504873473915091
0.46459201853013
0.46150367526427
0.4658665828294645
0.48339164367100657
0.4929032828849193
0.49772222783937253
0.5048449631961645
0.49723081764792515
0.48974556830737015
0.5064867440337488
0.4912115776672297
0.520212442312662
0.505529623224011
0.5079885044038981
0.506871381114762
0.5146217775475872
0.4940305943935731
0.49597980120209895
0.5130993305440303
0.5456423063512067
0.5424331054618896
0.5590174226182238
0.5508592675800921
0.5457700976199347
0.5376460245531118
0.5320264883804111
0.5486128889408441
0.5571924632863672
0.5183145714381411
0.5055846891385556
0.5022592014451612
0.49577648566522436
0.4936154776851458
0.4967567683747468
0.49944192098590773
0.5031493914879797
0.5065954434128744
0.47506454945063875
0.5339455962574102
0.6988314294201479
0.9091169753725253
1.0
1.0
1.0
0.7105170675617116
0.3046912097382621
0.31871661063485546
0.37645836017317935
0.4132968927324656
0.396587284262414
0.4056009545274154
0.42228383392976
0.4239203064782191
0.414461434384051
0.41791374921403496
0.4152201564879506
0.43181600256565156
0.42781337803856445
0.4317799179700906
0.45083126666595447
0.4353152126842887
0.4530309230299898
0.4606432592536279
0.4691200777857814
0.4514655030275273
0.46012922799666783
0.4778188104086484
0.49353833012176995
0.5058977029288929
0.5266036622556227
0.5207229770040088
0.5289416996391587
0.5188774212596109
0.5440512029086266
0.5462044533149403
0.589346688063251
0.5750261316858352
0.5829779154881523
0.5829893289901584
0.5844909241419388
0.599021039499679
0.5630067886065889
0.5615445616233186
0.5422919437631663
0.5514385079947617
0.5381981348969843
0.5494647837236628
0.52621120830658
0.534101838444151
0.49254026236223825
0.5116115169533378
0.5090622105229288
0.5167692901433242
0.5014110648059535
0.511678200511362
0.4767205642884485
0.48391540120866167
0.4668072845205442
0.45992131718895457
0.46794404897477593
0.4555563368901388
0.4669214268494555
0.5013922129601269
0.5249443271296704
0.5358609056416623
0.596426042757554
0.6260046358958661
0.7194292652355472
0.864938546455434
0.8712008729144305
0.5405795446487865
0.0
0.0
0.0
0.0
0.0
0.0
0.0
0.03590834647387462
0.1883133853362675
0.26223144891723354
0.3292987822736486
0.48791002624325114
0.6202894094834989
0.6566560653760513
0.7450622722315938
0.7810494857683113
0.8587349691294104
0.9031185874130625
0.9214832746197763
0.9883231540386206
1.0
1.0
1.0
1.0
1.0
1.0
1.0
1.0
1.0
1.0
1.0
0.9571487222911618
0.8844780658958594
0.8400671851755369
0.7538636997922639
0.7348600888506622
0.6993059235615544
0.6514023881099891
0.6304615159195355
0.6081112605156755
0.5891348737808505
0.6038550240563403
0.5925180407149918
0.605915063445085
0.5792743821345034
0.5843268128768125
0.586403903483833
0.5857109732622449
0.5511586917247006
0.574646025813886
0.5769285458628072
0.5558260515278215
0.5454286173791906
0.5406341613813407
0.5499926209834115
0.5476147272061175
0.5609227978369355
0.5524161883575203
0.5603529334102542
0.5515677071784701
0.5608421464204713
0.5454151126962843
0.5594270416492111
0.5353036836314867
0.5668672445468975
0.5893177804641085
0.5695783334265803
0.5591667325426533
0.5683832251070677
0.5719917157407903
0.5507949517095028
0.5545157045185782
0.5421808934899108
0.5637266476836225
0.5735687757663803
0.6021484864102475
0.5442412935441154
0.5304394907945416
0.5463147254953069
0.5693977380616484
0.5618881356670199
0.5705377731011588
0.5610670209451518
0.5997749234611599
0.5523180542428604
0.5754445993854379
0.5403291007411104
0.5179947688238029
0.5561913108734592
0.5479642832161956
0.5547653540341753
0.5448626007499141
0.5643415185733411
0.552870486236446
0.5606843926022801
0.5590378548370196
0.5699367737392287
0.5859706155918272
0.6051761387768735
0.5335641874913482
0.5508926210386222
0.5695898133221111
0.5913056743126314
0.6162741160138091
0.6140034132988548
0.6201309614793031
0.603605331226684
0.6061441305140228
0.6187495485588086
0.5756403324107712
0.5849313923777106
0.5576955847889166
0.5557988575602449
0.5762462985241286
0.5964797319989217
0.5862693212970652
0.5699965229628233
0.5607609597670218
0.5727792394332711
0.5958638720239461
0.5680857234266684
0.5714803956044205
0.5295200121241257
0.6892145381442571
0.8981178082883268
1.0
1.0
1.0
0.9712161011802884
0.4137622246301212
0.47226736998989455
0.5183214922619537
0.49397121956496093
0.4719438618488372
0.45413124445544273
0.4812404856273126
0.4920958994376262
0.48079647748305165
0.4850428971273807
0.48401627644775286
0.47769757557314446
0.4929791299329861
0.5131430314685775
0.5058569592677541
0.5203829808869773
0.5244577755496239
0.5339346176384787
0.5283280092148963
0.5406036661263021
0.5418942022946013
0.5404254892321066
0.5379612072705992
0.529631813445701
0.5078488676685607
0.5332651622722814
0.5278496223230174
0.5477869766146097
0.5406135109156172
0.5744463270814127
0.5610704051986735
0.572512261739558
0.5734064661730868
0.6027245431020737
0.5920109227410635
0.6095678239399481
0.6170396422984836
0.6062788653899327
0.5953132720412422
0.5743017286827682
0.5693466758698235
0.5559490799464029
0.5440564825333609
0.5456957171305892
0.546617136317247
0.5246465188159585
0.5097553452558703
0.5061260276837576
0.5194120324626007
0.49754261677313255
0.5261059812070522
0.5494604638984232
0.6028014680093238
0.6323170031110829
0.6235002427876907
0.5414832387866318
0.3767946591928594
0.0
0.0
0.0
0.0
0.0
0.0
0.0
0.0
0.08027507132652376
0.19223989877289513
0.29379357302024894
0.4061013210303039
0.5379508011136489
0.6637578051360755
0.7350243481575751
0.7309601376829619
0.8027315122793421
0.8523224503050109
0.913456578108773
0.9359599091110141
0.9582242256841994
0.9937072911659575
1.0
1.0
1.0
1.0
1.0
1.0
1.0
1.0
1.0
1.0
1.0
0.9666721144349635
0.9103987917332521
0.8553845777681683
0.8025852986373536
0.7737623145509473
0.7015157170246632
0.6861201756220721
0.6430569836816656
0.6053534758690944
0.584119095930022
0.6178503596268474
0.6005431369632492
0.6161835914231444
0.6205729263352942
0.6577244274390545
0.6608759788599518
0.7546631314188648
0.7801630045805821
0.8833751948143366
0.9725131269611704
1.0
1.0
1.0
1.0
0.8334778172112228
0.3002343234573905
0.005500756270827268
0.0
0.0
0.050846027636469504
0.08632181449855895
0.19071244706664126
0.22409089792811354
0.2509453913937797
0.22257209700280645
0.21578163260909383
0.18839520189054376
0.19955120362720144
0.17799663547095607
0.1809386677607705
0.19892118426752764
0.22582158000323221
0.21389748251150062
0.230470276768604
0.2312578260631067
0.25687554739402546
0.25237990874202165
0.28338260675585947
0.29361335208901185
0.32266320928840503
0.3315820207947547
0.37486982641264066
0.41655076172310884
0.4322086420565164
0.4606066607625839
0.46635418994433825
0.46877753236040764
0.4734791625562794
0.4994062080827956
0.47483247147558744
0.496894321348296
0.48729637095695616
0.5010972652123488
0.4862667429081805
0.4846880928348994
0.4716560534350096
0.48448862954202393
0.49266567740247363
0.4963876452894997
0.49872687234449725
0.5280285017437296
0.5240958311249904
0.5254946970601204
0.5490851901508197
0.5448925573729421
0.5483825629238339
0.5336405476556743
0.546754234793743
0.5573887715465489
0.5702998153654589
0.5543532884852933
0.5667979628256801
0.5383160862636528
0.5587647101990691
0.5393386495532763
0.5469215782740539
0.5203883302529573
0.5450438150344679
0.5500394367071286
0.5612186431839489
0.5428891852528903
0.5418161028922192
0.5344650383376378
0.5505896068207243
0.5298232224389777
0.546251056772009
0.5262393502488083
0.5458065457614719
0.5544929796214121
0.5581283413670904
0.5600075729929438
0.5396060061800012
0.548915731560226
0.5366169998594417
0.5493465898965258
0.5432098256971715
0.5506294065287423
0.5361265518776479
0.5452641759956531
0.526090863132037
0.5240103690195108
0.5317979874364107
0.5322134114790933
0.5214036410369336
0.554738346846648
0.5407752953512802
0.5446969005253084
0.5342125833939688
0.5478577827103324
0.5540979863393551
0.5526937493890751
0.5479337254171054
0.5553761594538237
0.5534974029629774
0.5417587711295757
0.5111260208868182
0.5371080186170991
0.5572560111784892
0.5225737325764799
0.5302224026712417
0.5410615647433092
0.5532162314565947
0.5313467276683133
0.5283189155129434
0.5382851501464913
0.560439639466143
0.5499818909870634
0.5639770521529536
0.5565441531494093
0.5507374587788332
0.5563514683054553
0.5615685156625727
0.552672788605874
0.5445354017058842
0.5401651326142219
0.5576989541477301
0.5435242549916564
0.5563822057368049
0.5423027234721696
0.522468821897984
0.5393604179381414
0.5400527476571805
0.5537366590080512
0.5365223414006408
0.5712099805034343
0.5963434854587004
0.6205964827396777
0.6036254612735126
0.6084407631960506
0.6017509068948367
0.6100632794258785
0.5900911821912229
0.5963733623192208
0.5748569965495831
0.5766228728499
0.5444146474930827
0.5579453571825199
0.543334377416077
0.525142379968617
0.5200017619565338
0.5790245788036769
0.6118032423223909
0.5779291682011927
0.5546398672142681
0.5716930493521815
0.5512873161223792
0.5651351169977291
0.5768616072270243
0.5600871302456378
0.5378611607329737
0.5070108716168014
0.6486363437748361
0.8360024017152693
1.0
1.0
1.0
1.0
1.0
0.520303688298057
0.28530049883354397
0.3521023189311972
0.41486068826904676
0.3869663488821884
0.3913595791674932
0.37644299024817063
0.38014259226884123
0.4080211676835036
0.43405422228144575
0.4324993730702215
0.42801565585787793
0.4305220256522245
0.4223156781778076
0.43962216018750117
0.4148496761512096
0.42767090074821895
0.42951025307452123
0.43768057885552747
0.4272713694035118
0.46418626156803605
0.46138694564214083
0.48172188425759527
0.4617879522671416
0.4867963088868713
0.47693045163907266
0.47680254832243074
0.48026943127387456
0.4906651634737346
0.5159131475562406
0.526101773885482
0.5139508352820186
0.5425234343038916
0.5475578556653428
0.5409253707443592
0.5380343342288714
0.5431005425240626
0.558632695583977
0.5653854352155478
0.5899646053686954
0.6005957033198859
0.6012162196179994
0.596671536500893
0.5857868351681497
0.5592959630234555
0.5803323823965216
0.5475470879372335
0.5575837960291695
0.546527543830009
0.5592776287932246
0.5260043418623404
0.5150913810093012
0.5111063998931249
0.5022574928445995
0.4854354224585552
0.5133888453746642
0.4885952248076563
0.4896630541571619
0.5109732009616897
0.5440528147334749
0.5617224159733365
0.5614032295802361
0.5878978117512761
0.5641354031791833
0.5750549527686994
0.6689837246118018
0.6771437037658361
0.5338722456691514
0.0
0.0
0.0
0.0
0.0
0.0
0.0
0.0
0.042305612892057184
0.21936012761741108
0.3137858847719318
0.2794534593394262
0.3052158264292074
0.4344997126528024
0.5866658786538481
0.6594817844146981
0.7293610550523872
0.7846282165906213
0.8429553713387336
0.860902033303845
0.8588230935589813
0.8864411028805789
0.9185455918232716
0.9725466566995478
1.0
1.0
1.0
1.0
1.0
1.0
1.0
1.0
1.0
1.0
0.9992969374626858
0.9538839822692899
0.8874635374330921
0.8793108165349122
0.8129306487321799
0.7713857685954061
0.7148938766593778
0.6872818335988473
0.6416409879458878
0.5972003029998894
0.5894615358643855
0.5648408022109606
0.5489047664492056
0.5114123522340551
0.5031765884030106
0.49694627462468716
0.5083835882522519
0.48247443799316725
0.49247684483400295
0.4733068261578996
0.5001594028216821
0.47571122448812037
0.4836282151708227
0.4692349401566269
0.5022075246358721
0.4922402621131893
0.49137478107375665
0.46864748120455807
0.4607833889185766
0.45666209052320494
0.43966646517513797
0.4439540771710873
0.4726601129267002
0.46461456920619887
0.468060542929764
0.4519560487029547
0.43816720467051085
0.4592476676582512
0.44041477606728974
0.46743735969258743
0.4536463547770994
0.4655281045367685
0.4660089684670578
0.4633377321927316
0.4418318595905939
0.46894294251987007
0.4625395448372972
0.47179326915160297
0.43843264521637193
0.47298880123488624
0.45137520619399074
0.4742916881295871
0.46310102310098744
0.4643686717082197
0.465973813513431
0.4427437865452452
0.4639942233590533
0.478755492584204
0.4750356472717403
0.5098560357593868
0.5044243533578412
0.49003802355840226
0.4869559396746762
0.4867334051164548
0.5037532828595301
0.4976846578172752
0.4939489458210039
0.4690134622706382
0.5284010235434621
0.5215001046241212
0.5536644955731721
0.5237977855669154
0.5670266240023725
0.5578328478158027
0.5606066706275816
0.5260304373702124
0.5418694607550879
0.5295223369266403
0.522349281614431
0.47454121421242473
0.49684497346645334
0.5183134458443843
0.5226600285822036
0.5357082910805101
0.570983186703556
0.5391404250487247
0.5210977386675613
0.524333557379049
0.513678249253799
0.5233646960721109
0.5197045328246672
0.5001170165897434
0.5310207987359513
0.7250745427213012
0.9700547817828278
1.0
1.0
1.0
0.9201132781320659
0.2509668623658328
0.2739360991080667
0.3624815674849563
0.3748885106918505
0.3702902570245687
0.3566250615449795
0.4083985998905709
0.44086476287762844
0.4653857714071588
0.45866549173919563
0.45280381478511805
0.48291854903791853
0.4645205803386565
0.45037625551661326
0.47327137214324183
0.4802509267758621
0.49293356257285603
0.5199302778137036
0.4843175879160781
0.5108241292801299
0.491335516866486
0.49994475274447536
0.49411047694323207
0.49967250707779476
0.48939225317453633
0.5268760943400204
0.4975093830041045
0.5137442891660634
0.48503917911805683
0.49166339736544085
0.5187043314640999
0.5456197788879015
0.5599926075255609
0.5938201155421776
0.586979917146582
0.5884405532776661
0.5820947941149321
0.585348974766121
0.6285861900521553
0.5984101653079696
0.6152494199572253
0.592110795828803
0.5876424059553124
0.6091081579358619
0.5840342096343683
0.5646550373353217
0.540614094114969
0.5065181898626736
0.5734768105011957
0.5708542458367176
0.5732289927153766
0.6194994810627039
0.6268972354527291
0.5569447638720495
0.599924003066578
0.514788893079052
0.5221013510890248
0.5771550252549965
0.5867265259794201
0.6320341425014152
0.6390071992011033
0.6240723524714564
0.6529897477289889
0.6542042715706337
0.6608234309891806
0.6210117797139111
0.6191321624392192
0.639551770829715
0.6490515239027548
0.7219406488145642
0.5247176176473226
0.5699167629842039
0.5488278563701042
0.5793777408756691
0.6009339573588754
0.5794716788322596
0.7075803679467725
0.6949312555845777
0.5480516716228443
0.5486120698560389
0.5168013291741768
0.6338673847226604
0.5265956675282035
0.46795816119657807
0.7563313294194651
1.0
1.0
1.0
1.0
1.0
0.49204613826737764
0.30867446582443253
0.32106137592046735
0.47991670671780806
0.5566939858383041
0.5326162078868075
0.2635690999809718
0.42139658121989376
0.4675283969034324
0.39392854436737607
0.4519169704114085
0.31990410253170865
0.47854926068967274
0.5650918460154608
0.6449647597955277
0.34855572409424795
0.3472573876295435
0.5464588350480274
0.45562999539858157
0.3916305584833453
0.45837893429688326
0.576981370948554
0.5525430381593767
0.6478863766828314
0.7329396092520488
0.535440880674052
0.3839684849006273
0.5913707761611354
0.5828490515735163
0.701161548780113
0.6248712132384797
0.74049014276187
0.6334995383310708
0.44166583337685283
0.4953798065367681
0.6571124471600762
0.6361487825286044
0.537468776185289
0.5681035829370841
0.6360657082545313
0.47573503333076184
0.664222815808413
0.6203825762064
0.47321616282348816
0.5659100029974226
0.564390078092072
0.5403469702472681
0.5471298039471516
0.392455209770909
0.23519481462122763
0.4566378089895755
0.44281488445176
0.49899911465635693
0.4487607467672407
0.46937767713900475
0.48760395027581405
0.6630646798526338
0.7959201039845902
0.6794847649857136
0.8855392791242046
0.663171174114794
0.0
0.0
0.0
0.0
0.0
0.0
0.0
0.0
0.0
0.0
0.0
0.0
0.14602314788485
0.011145034602997761
0.19485515998950526
0.42517126895209606
0.47772509068255137
0.9420650661383835
0.9508178739349902
0.7284483047376317
0.935944809868278
1.0
1.0
1.0
1.0
1.0
1.0
1.0
1.0
1.0
1.0
1.0
1.0
1.0
1.0
1.0
1.0
1.0
1.0
1.0
1.0
1.0
0.9675980808958012
0.9336421686804701
0.867515721047238
0.8174410662449999
0.7671416674010223
0.7355121743413993
0.6840739552009639
0.6355401051156859
0.6210095430234774
0.647125916035916
0.6906396564102837
0.6242007889037504
0.6362009376578597
0.5765965247205318
0.6071430526583044
0.3977605916446024
0.41009819343018983
0.45240639658353066
0.46610581427938313
0.5216804143920135
0.5177615243069209
0.5002137413011362
0.5396092679075324
0.4914494426712044
0.46898753612239863
0.5187485743898913
0.450903050230315
0.4750728756337931
0.5179308687392095
0.5240636353218928
0.45091884724773684
0.43996438355249134
0.4618683764258983
0.44181191494438615
0.505491907592147
0.4311736525629534
0.49690708785049287
0.4961668672036679
0.504054636270676
0.49384528114463044
0.49460917683081373
0.5203807395735689
0.47495037493225983
0.43618445942501943
0.5146085291018675
0.6275429182095257
0.524050945901142
0.39182055269026905
0.46809684235559557
0.5274427819668097
0.5267552099013296
0.4144455584678862
0.46836741161348083
0.5150549563980349
0.4932833105139284
0.45988933693460676
0.49968744300043777
0.5284469781303482
0.5396055239542875
0.5606779081924858
0.565033623836565
0.5696250065409536
0.5583718106613863
0.5185189501255574
0.5079121461558379
0.4587216803963544
0.4912557465190641
0.49786763805222617
0.5101074920569373
0.5420411670702417
0.5395538344625609
0.4927213633095039
0.48035627832997624
0.5018240996934507
0.5157353836434747
0.494807595567083
0.5381159434903287
0.5071488653110111
0.4740946035351744
0.5047507868426123
0.7867281764976114
1.0
1.0
1.0
1.0
0.5745418762434966
0.1472332207329825
0.2798521508537425
0.3201805700524895
0.34174768578421666
0.31757350711428567
0.3289544232498681
0.38474429756163514
0.41179653266108407
0.3767010435835262
0.3767012604779631
0.3515016489883016
0.37302643943552755
0.35619338147988283
0.40536292986143974
0.41747448333240705
0.4383478992928387
0.3933440628693099
0.42871550345724696
0.4277412822694003
0.44203492176687115
0.4439104582351412
0.46425155067883966
0.4387670905049985
0.4699829614445942
0.4279063253684804
0.4679625464900486
0.4646554743534181
0.4872721234356764
0.49041883026522337
0.5228900286738238
0.5176688775119793
0.5291614098794994
0.5652708228483826
0.5532192509030007
0.5688408532482018
0.5727885065191511
0.5920509083022923
0.5810560882016543
0.5853758942393519
0.5591606094509771
0.5516818689379712
0.5393278928193981
0.5406403252748121
0.5174911491695211
0.5288103392913681
0.5198808044920995
0.5259173318801936
0.5055447374556707
0.5144275470717962
0.5268163818054221
0.5609731197268364
0.6116515683123424
0.6562245571986349
0.6912200677112745
0.7826835901062343
0.8583053174346322
0.7340667699576959
0.4069538889362625
0.0
0.0
0.0
0.0
0.0
0.0
0.0
0.0
0.0
0.1607732829808543
0.1974302573113976
0.2447959467525905
0.3745816510592124
0.575256886210334
0.6699805293105865
0.7602961365506522
0.8002082030277297
0.8803156941532588
0.9019144626502158
0.9075550250015862
0.943809395217943
0.9992431870307851
1.0
1.0
1.0
1.0
1.0
1.0
1.0
1.0
1.0
1.0
1.0
1.0
1.0
1.0
0.9637264166440669
0.9080638060663684
0.8504804990392719
0.7702786333770077
0.7183102003698572
0.6737134256262631
0.6402122465135701
0.5950627859315836
0.5749040472356436
0.5501312643117344
0.5214382564186493
0.5073578482984973
0.4854798742902817
0.4874816332391855
0.4651184210285173
0.4720533574703173
0.46259264002944417
0.4739280222732808
0.44611707868867034
0.43068354234844036
0.42118737040818227
0.43083710147787785
0.40108085984469166
0.42119957572393074
0.41093633568020166
0.4052182783175664
0.37957943740745537
0.4030764793568279
0.3874227342991842
0.38591846331106305
0.38878805468162475
0.4087218707206192
0.37258096532357676
0.3752295655986678
0.3824825538445005
0.359112724602131
0.3690683881411916
0.36018327167633746
0.36060566441556957
0.36677616732712925
0.376800305490368
0.3582341222470773
0.3586209878542061
0.3532527365171232
0.3763198624034373
0.35788071771310714
0.36691386503627876
0.3553473463845202
0.35765810443784535
0.3520396341331061
0.36329223266985966
0.36135276479902656
0.3812105539913845
0.3678325705879538
0.38237679272923786
0.369781361230882
0.38929587529442583
0.3915946629858169
0.3710969736721948
0.37723708329802974
0.3577993395882033
0.36425415722432064
0.352025368813712
0.3539313349859946
0.3508060264014847
0.38988371128540206
0.36389565563544257
0.3450057291261917
0.3497682846730461
0.3638155719375731
0.33740774084010355
0.36882857742638875
0.3616848049368414
0.33586497336817933
0.3202756222615813
0.44593334007785235
0.6146585774635543
0.8318161207418765
1.0
1.0
1.0
0.5798280869874393
0.11227530464701138
0.12471426289858187
0.19076286821165162
0.2245753101335632
0.2521501379696731
0.22814897310023147
0.24145715900797327
0.26126470495169846
0.2853348080595968
0.27679199086969486
0.2845025328843863
0.28016376147400424
0.2921629193309858
0.2841036644154313
0.2820081842899067
0.2864604906495717
0.2869418507498015
0.29137186535075077
0.3120757826255426
0.3084642927181004
0.3241561291826136
0.3032625519538298
0.31264578952321653
0.30216032925007136
0.3328205848246014
0.3326196675810308
0.3244825919233127
0.3261302094411056
0.34230672525381445
0.32925048042969757
0.33581312585721235
0.3526735157597865
0.3349556002485744
0.3758582281273806
0.38250104638984916
0.3922165743046622
0.4026331533621855
0.4160019931818881
0.392010977239182
0.3975211143194727
0.3830149628943178
0.3990503514756061
0.39480943024242576
0.40896196900275356
0.3822617305151204
0.36802280573583607
0.3596738494950437
0.38940063685705467
0.3807424841650991
0.37542247508869786
0.3768488471927771
0.38913478160370885
0.43258277030341263
0.4543939752485787
0.5087907061807031
0.5490969434313933
0.5441886967304093
0.5253092578478121
0.24555461705374798
0.0
0.0
0.0
0.0
0.0
0.0
0.0
0.0
0.07735354493050747
0.1612536431910939
0.2548172538681869
0.38573355908866197
0.5161095510336788
0.624717103823283
0.6966003154200072
0.727839005311007
0.7337043691705255
0.7547066850015238
0.7897601693086401
0.8061190829275985
0.8550521403493496
0.8792121721108572
0.9225876881449917
0.9447897024056087
0.9797330641299347
1.0
1.0
1.0
1.0
1.0
1.0
0.9899315209354353
0.969187507959224
0.9326134335113867
0.9027860855573435
0.8390081268924199
0.7946236378227841
0.7358531310783168
0.7032142798734344
0.6437033051532269
0.6126776547302326
0.5817573496671079
0.5616490028035133
0.5315879167652823
0.5064735638742559
0.4839715565432992
0.4758020688494966
0.48660367839928875
0.4927126933914289
0.4894993867523585
0.47378587479266365
0.49032023385387447
0.47597061289264236
0.4729326447058516
0.4608292706502244
0.4689696452305876
0.45993119156077356
0.4674534837781329
0.4483360256492854
0.4604173871718046
0.4588783737196218
0.461983369051309
0.4425188783032278
0.4415889622433441
0.42871886178995544
0.44859948782169967
0.43237009868236065
0.4345365956971056
0.4459234052577831
0.4457709197864611
0.4343730704384631
0.44321412572683655
0.44344092723347217
0.43744174338534086
0.4500766508044266
0.44106238567019745
0.44663245993063255
0.44461799278683384
0.44923364862968446
0.4246412749829297
0.44625745812200385
0.43755227908200833
0.44757507460475343
0.4296434757236368
0.4565298374583559
0.45666785640608654
0.45114144030935827
0.4575002553006919
0.459699641234294
0.4476047269187249
0.4486182420087661
0.44460450256973383
0.46044494286044413
0.4647508333078704
0.4750265640967095
0.5018193841487586
0.49929836953932505
0.48037043377607
0.4511336089482759
0.4506630590134999
0.4605040915054623
0.4548462649703091
0.44418169862753504
0.4746270307101138
0.4710568993572929
0.4774896389708383
0.4443653016523724
0.432161700196038
0.43268581322631244
0.45386561985327
0.448788600330118
0.4735758432849952
0.454004097027762
0.43264106316818013
0.49358303601895226
0.6730290692576205
0.8782508443777599
1.0
1.0
1.0
0.5115046409716295
0.22469382969085264
0.3152238186128414
0.34980475221048735
0.3579120749641979
0.3297870498301072
0.3469686189925153
0.3677994712674355
0.3874808816433044
0.37352956950873173
0.3751352224792416
0.37143315113923514
0.3753339678136335
0.37914802606736536
0.41209687464526157
0.4075279889811501
0.40599067479428275
0.4050147942865051
0.4087367590611405
0.4009924997896091
0.41708244469896344
0.4142902668980777
0.42864368108087436
0.4372582949857394
0.4247395973077972
0.4267178627566867
0.42828420018835134
0.42253477621497915
0.42367331749477816
0.43173004553621447
0.4331685373672989
0.45771858447122166
0.46058465272619575
0.48132874090196137
0.4736803497432221
0.485154129221306
0.49585901307780367
0.51199389289761
0.49910437514362566
0.5225886795268482
0.511684376303394
0.5238213612870127
0.5041546729981935
0.5006505314196945
0.4977476824635678
0.4945414038401169
0.4765822782722949
0.4881068593262151
0.49212174633024813
0.47304286177527555
0.46866392758305186
0.46130453719328895
0.45713598882977324
0.4509437505632368
0.4632630866594146
0.45230486996994673
0.45309876461536386
0.4533538800669897
0.46935025499733535
0.4564726469281738
0.4604270167189378
0.46217462394013487
0.4854967075649313
0.4742792004772262
0.5095542213263873
0.5258380545325225
0.5095919780555255
0.46518354678013385
0.47974804958692346
0.46970446389215875
0.47308149516887477
0.44421400488564566
0.46265400698590187
0.46544373894074714
0.4660648303847036
0.48804954318666943
0.4644194535077144
0.450915932952529
0.43750958298665543
0.4340964653110789
0.4376530086343483
0.4383727583624347
0.43216109002952674
0.4446840210452955
0.4323790942704573
0.40587213042689757
0.43757353240173574
0.5903885717496136
0.7514043807825284
0.9421782153635929
1.0
1.0
0.8627463599103447
0.45259477135110027
0.21645183311236488
0.27508905337355627
0.31064767772244384
0.35600660470813716
0.33547178943274797
0.32373683769034045
0.32644924032495953
0.3484912883474404
0.36791003346453655
0.3610004666494726
0.36274534153451415
0.3489697974009607
0.3664068105822459
0.35972306304088486
0.3725955022005644
0.37314497844699424
0.3904084742748462
0.38142759312030544
0.40222959838309863
0.4120498754378897
0.40069404301436784
0.42032134726842074
0.43620459076467766
0.4436850734482524
0.46158651672438394
0.4655757315877838
0.4744388051930398
0.4729709236381218
0.4899662327529054
0.497873351210962
0.4814509339924114
0.493045270586404
0.5038283364619539
0.5302044126983094
0.4325810218637661
0.3952427444023453
0.4009052673843219
0.3602068093267663
0.3910881311443207
0.45625374858729073
0.45562185621838125
0.39033758243363315
0.32562177626193683
0.30987871284338137
0.36235699915338365
0.4526428748517103
0.36391672223950766
0.2653029397295549
0.31201706099104326
0.3085404679073389
0.27253770619952683
0.3502392041641313
0.3754332006471959
0.325339801726789
0.2850746679491514
0.26569200277428834
0.3802837684635233
0.46019571837743695
0.4097709841281567
0.4422547249961524
0.5718082403092793
0.8738839304390951
0.890010472597462
0.8140581685340715
0.4545967524317479
0.04641938321295216
0.0
0.0
0.0
0.0
0.0
0.0
0.0
0.0
0.0
0.05600399060370505
0.23836751809756004
0.19840884377786044
0.25030342024382096
0.31041174500195007
0.49796733139572513
0.5146533604606789
0.5996529469174389
0.6485581893308138
0.5539423682409408
0.648809373027617
0.7107989918556349
0.7576548288122328
0.7655287195584195
0.7858899580616036
0.8353659336119389
0.865072477753767
0.9343420273941987
0.9546906261742937
1.0
0.9268835520566807
0.8779852839753494
0.9426338169252547
0.9474942578865498
0.9523764701512552
0.8929142669059609
0.8776418813383092
0.8349608631722447
0.8138869561711493
0.7493744558827495
0.6792349420814027
0.6909817091352208
0.6908955257160307
0.5851568402358411
0.540073507443563
0.5666379962256942
0.5622667523402465
0.5467047337758242
0.4980108116016358
0.5206146732826762
0.5032748441518684
0.5238270356589423
0.5387722887004036
0.5511513095473115
0.5432539036247854
0.5424723716281079
0.5167366572123314
0.5320939502891389
0.5379615001297491
0.5320916108207002
0.5194248146121148
0.5238976578535668
0.509522758544993
0.497742304250324
0.5214733782479134
0.5047848433815678
0.48261059060540623
0.48751051813345275
0.4883593647736994
0.4751250024949016
0.50430230600756
0.49565532390284445
0.48870910055259653
0.48271291019972756
0.4870151706887005
0.4731046051872244
0.48813761301187986
0.48210186146658984
0.50366393369961
0.5025487857692855
0.5067357116378367
0.5009310981550292
0.508040058772111
0.5331592752390131
0.5270113325009158
0.5081185405971844
0.4950556483993613
0.48912786067129604
0.4892668254213316
0.4740042287922355
0.45660097255565224
0.4949684455655506
0.4895525670685517
0.469039378660543
0.4446782524104404
0.44300734082946747
0.4595031783654777
0.45355722070635407
0.45339397953379174
0.47120621536686863
0.4411181213465323
0.4567739673176675
0.6423374663976924
0.8501165356458484
1.0
1.0
1.0
0.6370853275320227
0.28025893616012126
0.3571224133047932
0.38035627593932436
0.3846968818256952
0.3561092728959809
0.35552277947246463
0.36759408671057003
0.39915641772548316
0.3923363457165424
0.368614846430786
0.3852967202500669
0.38758952439369015
0.36775821735945147
0.3611809453441078
0.3824993655840239
0.39063671858037746
0.40118874963043183
0.3988478324924352
0.43043689738239255
0.41278861491186924
0.4230762521068467
0.41257467350832255
0.4139669405543726
0.4184360653524397
0.44275303682557743
0.45286309736499153
0.4566247439453286
0.47060466692948133
0.4775756156966372
0.48757736309500477
0.5012406329004341
0.4921365314735162
0.4834095034780441
0.4749022042924798
0.4719166837475909
0.48700903729928946
0.4805823374543189
0.4756900153571393
0.45469333962000774
0.4754446875477717
0.4548013302706365
0.45454336528541095
0.45536318319748814
0.4595077272694351
0.43423971042053944
0.40164318247565045
0.42845391365448193
0.4613339999676331
0.40331581942317785
0.43132623088145533
0.43038041227870477
0.45355823449135374
0.46465155887662374
0.5042270180298017
0.5186766008431858
0.5701647892278103
0.6413030156681931
0.5876996852127514
0.4149677670530404
0.0
0.0
0.0
0.0
0.0
0.0
0.0
0.0
0.07160057710333297
0.18399709635944106
0.22030496295876145
0.26750040975192946
0.37455395823385645
0.4816324397643642
0.5806230624839254
0.6529280052587438
0.6616372938299653
0.7075112434129283
0.7270127680380976
0.777213825273977
0.8267269620199691
0.8441971968075693
0.8638351815240373
0.9065175100214027
0.9205322867221998
0.9318968918369969
0.9544910682408382
0.9718832699377169
0.9936807894703665
0.9904854061859881
0.962856232031629
0.939070428360355
0.8965225574727821
0.8583620117030565
0.8198607765968863
0.7671710679200381
0.7201160251238511
0.6591140477349849
0.6404952999119182
0.5988223959278048
0.57515582776524
0.5482465264354983
0.5333294859765163
0.512508612824623
0.5193656841884418
0.5125829291144348
0.506435258104917
0.5077504517393147
0.5029807188575024
0.5035495522680685
0.5030799854334846
0.5075110613108891
0.5028103719533839
0.5078972247187715
0.5084795676015508
0.5032246422689529
0.5079985978888836
0.515530453244415
0.4902143241093261
0.48076970387253687
0.48363150544179573
0.5004170194900374
0.4776089004731202
0.4781822636341822
0.48434532635422334
0.4905940063206572
0.49140048893346544
0.48373176649697236
0.4729806938613419
0.4896309129340354
0.4899769929624955
0.5075026537978976
0.49674706516743783
0.5097593091902064
0.4857263894992804
0.46901346716388026
0.495051658248771
0.5140445918877123
0.5331621610986379
0.5486545141915566
0.6105700732650445
0.5654215085552414
0.5189211209740568
0.49058864660206253
0.512766624617077
0.48720675067789887
0.4875877860428205
0.5118126541272277
0.5263588783439932
0.4861795384317248
0.475304776996387
0.4620781735440137
0.454683128976039
0.4833693833649223
0.489693387376491
0.46784948775820656
0.4517799098557454
0.5177387462168463
0.7015266682452314
0.9290289453343117
1.0
1.0
1.0
0.508482078780221
0.2358244856164433
0.3580880530361049
0.3719283069926774
0.3855872193707427
0.35266328828514737
0.3746280845034171
0.3838183266170695
0.4040765832077584
0.3681489052448613
0.4014544714595035
0.3953122574214764
0.4086877370283017
0.40244257539414374
0.4301059961030358
0.435263999347519
0.44263051162772865
0.4388503635990735
0.44451035403548167
0.45423509649569294
0.44775619864828303
0.46431674204381235
0.46418092450223875
0.47354684798300106
0.45741944075457425
0.48035733754312204
0.45501881976234226
0.46567299069994733
0.46795884695250534
0.49391535144610205
0.48977429091956254
0.5090647170749807
0.5095523556848547
0.5360410936783628
0.5065869564535072
0.560064550833157
0.5507333295614443
0.5568656344144469
0.538773092370945
0.5344444491128155
0.5191000777875419
0.52281830049346
0.4918556614778854
0.5258913137985234
0.5047931728598353
0.5041104967173466
0.46636708285757145
0.5020898008367912
0.5071962780375181
0.5199687862406872
0.5715546321694843
0.6472473330951989
0.7635428926078853
0.8753575603512911
0.7822760238471438
0.4099784230000333
0.0
0.0
0.0
0.0
0.0
0.0
0.0
0.0
0.1600806696013654
0.23147953809736405
0.317602193656048
0.43831231801629844
0.5977865851676747
0.6852872605952764
0.7276949655558715
0.7563691656621309
0.7836209063781714
0.8016958423940125
0.8274241357410832
0.8819778376568905
0.9088466942416717
0.9608954856159315
0.9903509123220889
1.0
1.0
1.0
1.0
1.0
1.0
1.0
1.0
1.0
1.0
1.0
0.9897543012291617
0.9602952907509369
0.9015188553293264
0.8749602070579285
0.8265670673279978
0.7393439806275919
0.7158224118774926
0.6853597406555979
0.6561654392090619
0.605992060410496
0.607092731826531
0.6060592965278478
0.597175254351908
0.572930909578206
0.588580215182874
0.5564814610854453
0.554178856840028
0.5507857567291807
0.5518233165259836
0.5576541519535299
0.5157423337479409
0.511388904588441
0.5322116295008564
0.5207457138322331
0.5277194265589797
0.5170976117446637
0.49628556812558494
0.507076666636001
0.5104301397024116
0.5001610184677148
0.5141573997425862
0.49819043787410633
0.49822821595219136
0.4957727402380024
0.4827036286715022
0.4841804466272629
0.5048120770937161
0.502623874835857
0.4792320374246152
0.5063487068168752
0.4804485335395602
0.48328969349553985
0.475192942497094
0.4915327870827838
0.4672633793200135
0.4765386006273268
0.47803982830604425
0.48040684712513954
0.47075117315902837
0.46419454980413777
0.47203877498661573
0.47401286851959695
0.4857357808278516
0.47867571608160536
0.49701388976419086
0.5003971704104728
0.5258394667566798
0.5340561035014945
0.5177629843725883
0.5059511598245424
0.5000330317308674
0.48435491573926415
0.4883652326331568
0.46919777562366927
0.4888800762249354
0.4926963623830739
0.4955517068355263
0.4712712977561255
0.462690241657294
0.44810035238546597
0.4541308027008041
0.4461195754814753
0.4494142601033472
0.45817829268547017
0.4579993761782027
0.46769849380526196
0.45416630949454034
0.43959217901556996
0.5427226424401326
0.6863147259789398
0.8255812673434673
1.0
1.0
1.0
0.7491060900611275
0.356122305862607
0.27278218066940507
0.32743693330582924
0.35293281639846547
0.3803378754692224
0.35805106801178616
0.371086975104128
0.3751902602877168
0.39258101006607343
0.38265489697655203
0.3953996642665748
0.38803636870829183
0.392684522407116
0.38961456466804356
0.3904779502849275
0.38021521704858896
0.4080387231636788
0.39601718083302184
0.41074799132969064
0.4244689587036821
0.42499019536241234
0.4183404972533202
0.4341199561448703
0.44094588174505195
0.43481428673044453
0.4387816638840574
0.42994044542116167
0.4306922425680629
0.42916781956321304
0.4367293379278824
0.43625506315340407
0.45519271416610146
0.45541816687176473
0.47686153036154416
0.47985278968199135
0.48872650630207104
0.4581987095166668
0.5052728203463894
0.49203739468361507
0.4943502378111333
0.48800425116967616
0.5008894972553716
0.5104695072147496
0.49520995536849355
0.47092980740242335
0.45567493501918344
0.4633941178220319
0.46666122992889686
0.4695301152995362
0.4542794734661376
0.47327884808536186
0.45591134606059186
0.46980599277477875
0.4852619773700626
0.5100114927342758
0.51310373383014
0.5359417898960406
0.5508092694736625
0.6187924616591939
0.7215209516307922
0.6718631588993753
0.5530021574145532
0.0
0.0
0.0
0.0
0.0
0.0
0.0
0.05108663003596785
0.17152070641332898
0.2641611650411991
0.2974525349864085
0.29404364536356614
0.33290390892755023
0.43796170017082325
0.5693030209522438
0.6623743465257823
0.6707283296684476
0.7088625795437294
0.7299295685317025
0.7589507012850844
0.7549799567174398
0.7966232517076304
0.840232220436335
0.8990164980682238
0.8874971102726581
0.8836542702033542
0.9337180471373685
0.9320910009501508
0.9239094782098162
0.9365111262200324
0.96020468184957
0.9770128451724609
0.9756985253504762
0.9655697048719369
1.0
0.9535182643885804
0.8720586439476005
0.8478539538900707
0.8336529572959851
0.8111755264499007
0.803320876234469
0.7968567719864672
0.7151632174694236
0.6238339332589911
0.6472977086803343
0.6711490663829538
0.6237161197518584
0.5600151172384017
0.5473354825377701
0.5945516001472574
0.6163475565963434
0.5746768679965046
0.5400701354778419
0.48883423285059424
0.5481082077989143
0.5841245120967831
0.57000407954342
0.5515532550001541
0.5624577155815575
0.5943820747520002
0.568847805836295
0.5627959586648564
0.534006225394393
0.5058379065297008
0.5027248115936506
0.531218128603417
0.522932305815385
0.5491130247043381
0.5228411836968239
0.5567018549471215
0.6113496432077428
0.5573396613296752
0.5473086250373269
0.5447762365438438
0.5004658260228121
0.5478914769644645
0.545420017062461
0.5227148292021765
0.5295353928191209
0.5434515068062261
0.5484877614450803
0.5364671866264972
0.5537916705086301
0.5862462204345646
0.5449129381038791
0.5591230043778063
0.4908462223264216
0.5190322428660905
0.5641917137060412
0.5864317785332077
0.5873311932630758
0.5399892758075098
0.632022053541335
0.5762618916247916
0.5393040702299496
0.5754544563034507
0.5706974618949769
0.5794147546093008
0.6140447975433697
0.5806771511710178
0.5431214202053011
0.5624720548574064
0.6104274193312386
0.6211622381040998
0.52795235748389
0.5575105961923608
0.5146806969452153
0.5570287452102707
0.5060828400340809
0.599914058538797
0.5182606674372386
0.6030960607498741
0.5999618194380382
0.5327685415919523
0.5310815018752029
0.5696199408183917
0.6151264205553922
0.6464158441898499
0.793986280990435
1.0
1.0
1.0
0.9718618121403317
0.45913201062139164
0.41304269832046536
0.5420796180462448
0.6009878092444307
0.5190787077037106
0.42953117189389306
0.49459086815664544
0.6321895124448929
0.41528366985624243
0.40987712961330774
0.551858737688455
0.5089052085170203
0.4745900190482092
0.537916418981053
0.5676060621206416
0.49514946731728327
0.47918578195520983
0.5490638441793805
0.5170876535967058
0.4897083089851139
0.5259895716144279
0.5948845084084867
0.4303262267942968
0.4186881225252515
0.5348980380591074
0.47598752986273957
0.48493697190118834
0.5270824914685632
0.5487523119513467
0.6264305547493096
0.5686398718033304
0.6342050724556255
0.4972119795817833
0.6600740183027979
0.45260838364416334
0.34386843370593123
0.5504024156604587
0.5828606046043419
0.6106530006858735
0.5982423491937101
0.6050531860328382
0.5361531952646231
0.6512514543159842
0.4936664300736634
0.5058313761997835
0.4719684866001447
0.48983299225119936
0.482251415942477
0.48602471442384576
0.4783238922683209
0.47663370592765475
0.5106224917842143
0.5570343482308567
0.6121821583266575
0.7002854024685133
0.6869765076840264
0.5747219297828633
0.578594259946901
0.2798348838059046
0.0
0.0
0.0
0.0
0.0
0.0
0.0
0.0
0.1289226360424051
0.24090539104606382
0.49857716044862455
0.40449046744980405
0.4563317104962829
0.6524253894490746
0.8166458054139575
0.7111053405251037
0.7275655733378177
0.7951259475764967
0.8239334327601568
0.8543902373121363
0.8799224252522702
0.9152235481464771
0.9320599272259285
0.948611557617627
0.9708490892793573
0.9938149819205577
1.0
1.0
1.0
0.9993994228044422
0.990410093387721
0.9699370569885828
0.9442442872527292
0.8968010809420128
0.8265470811181863
0.7998391326960951
0.7516564675001064
0.7054145330491421
0.6604256269092288
0.6681751743961858
0.6140079791434905
0.604039658561766
0.5753639912593899
0.5958682632834271
0.5377877936442657
0.5644526588498544
0.5139662122570281
0.482733377522748
0.49554057354937553
0.48328552689129783
0.4982662773333068
0.5029688588803193
0.5086607076538365
0.4655396647530221
0.48939755614380587
0.46437067774991886
0.6144750141826143
0.5105734015557075
0.3692038769184611
0.48808539572021337
0.44357373763269276
0.45488167808939084
0.4410491769225605
0.4509739672273555
0.4562384705156702
0.6095325501758097
0.6738900337084488
0.4508015841335228
0.5620696911581604
0.39238820172075417
0.2178765312015481
0.3618474219481546
0.42031948026176796
0.4272636925261198
0.42957675968224496
0.5017866635817896
0.5928861198410071
0.36511773697042516
0.37209294225086637
0.3841415903453824
0.3834103257134269
0.45203409003378575
0.46139703561669465
0.47882289139984674
0.4582468766578356
0.46624911222126453
0.3740401850535925
0.4452105802067515
0.4543217010074664
0.5290924199039411
0.4098099620804511
0.43892769190537917
0.47084192999199087
0.4956329729292118
0.5482530131514505
0.39758044830518763
0.39509199063427497
0.4324725570794385
0.37057394476672434
0.38945650334563836
0.4231371429471064
0.4235627745377008
0.4354061672915269
0.4377052037168812
0.47121952635796394
0.4899919735323074
0.41612996963855575
0.43654389659004245
0.6212625547977236
0.7473590718690813
0.8753015130621978
1.0
1.0
0.7234364716694215
0.3527800327437524
0.32237819880556395
0.459896500957851
0.21862768045323952
0.28405523842832237
0.35468497125640175
0.33670167901164905
0.3896058812722526
0.40464839716997814
0.41889247410261293
0.4131628360615802
0.4190474707227138
0.40164124312218286
0.42042613098433856
0.4177435191232138
0.42032383273657653
0.41956641083092433
0.44284161816324197
0.42769349335149676
0.439313929963148
0.44913739714786927
0.45399943074462756
0.39873724495962765
0.440768147620983
0.4351888821310945
0.41921539163330496
0.4228263097382829
0.42352188189836604
0.4401022135185612
0.44299894209372914
0.445359201342575
0.4644805967432255
0.47182097293885833
0.48985269597726677
0.49816268888687665
0.4948939927845976
0.505690847829736
0.5118276627553795
0.5180871272780754
0.49604553733617207
0.4864937760649263
0.48198476640366417
0.48081372642871345
0.4787851337569335
0.4849322754709046
0.4722525523742441
0.4782883916225303
0.48165603152707115
0.4933704950969859
0.48468889317497743
0.5125710824018191
0.49690185816329835
0.47203482827808446
0.4379452126156023
0.4727915550403961
0.5052828749072348
0.5105810823333339
0.5198111668917409
0.5397113970663362
0.5433816722440519
0.5317408180532419
0.5263430571018521
0.5051371848437516
0.4775357932255459
0.5137941024392901
0.5097054801989184
0.5136764924116592
0.531201492510927
0.5237998325307144
0.5168326216211755
0.5164147951473385
0.5161541292273261
0.5107418174185917
0.5115149094172674
0.5152025002699415
0.5165657998029248
0.49914014634949117
0.5070545147607717
0.6486959198387947
0.8222065206196589
1.0
1.0
1.0
0.9337966674327041
0.394948772131206
0.334925030316084
0.44539344791703994
0.46639333368982017
0.4501224498206957
0.4260635644308753
0.43245195402066405
0.443235310943236
0.4866085574280736
0.48989310399359604
0.5358170969261874
0.47494807623320623
0.4194037630199759
0.469990669098885
0.4724905325637122
0.4938013696688439
0.5454831442879383
0.4809457756550589
0.4668762654004702
0.5234015564821777
0.5105830132031379
0.5670610990353523
0.5849548208036189
0.5458644707446023
0.6084362130700826
0.8090334909849272
0.53254203168713
0.42311976790283745
0.5975443739446025
0.5834864632793366
0.6147253245989279
0.5704340763115081
0.5286150334140118
0.6107831145507073
0.5852440634688534
0.5849590108761709
0.569645742681988
0.5892274506268548
0.5832517250376645
0.5959689288202386
0.5259539107253419
0.5430056372557822
0.5630355001506969
0.5156326278229385
0.46950270466790006
0.5248299632357561
0.5063475266285284
0.50326298582413
0.48978651949850205
0.4992434844531359
0.47965889115668103
0.4801556014824941
0.4708315753776656
0.4873282081840829
0.46630087120038716
0.48227485612812604
0.4930071949758917
0.5117051508584521
0.5170264413999999
0.5656866033794596
0.593993164734869
0.6648445781318759
0.8111274268498402
0.9516504899495626
0.49604524596194777
0.0
0.0
0.0
0.0
0.0
0.0
0.0
0.0
0.0
0.0
0.0
0.14596210378943467
0.25593302153374825
0.32200963128986115
0.4444821881163885
0.6146062933656558
0.795291688583754
0.8756387881946971
0.934708416191199
0.9615610682323645
1.0
1.0
1.0
1.0
1.0
1.0
1.0
1.0
1.0
1.0
1.0
1.0
1.0
1.0
1.0
1.0
1.0
0.9917787216145687
0.9320646808720483
0.882515991603802
0.8276714502103655
0.7888159976764824
0.7528629189718055
0.7320707993148
0.696888285872095
0.671698051622538
0.6561213656891443
0.6175458051300995
0.570045325620492
0.5905285390459369
0.5627730777734448
0.581321127328102
0.5545375834279211
0.5656000145523622
0.5552566390327788
0.6237437728346862
0.6045888022751683
0.5878201414926056
0.5079161405632945
0.49860261933884226
0.4837121547244007
0.45300051251395396
0.4735558890068482
0.47924696810849926
0.48172030515708675
0.4762891522809979
0.532938910490302
0.5296049249869762
0.5988350066048342
0.5903696007042689
0.4476303048995437
0.5326194146016217
0.4006789230259421
0.3260037199730988
0.4253910837486492
