MLII
0.5
0.36510184810468094
0.5
0.36510184810468094
0.9259465966857686
0.6096749760556056
0.6204950695916734
0.57427327250405
0.5831457164426667
0.535225664093766
0.5427114537177411
0.4937558754791632
0.4325509240523405
0.4003603133529416
0.3885484860046364
0.3820038017066367
0.3105118864720115
0.30254502420411644
0.3157420972052489
0.33397440666552203
0.3425386637012786
0.4121524901573669
0.41826980026360683
0.4311243997185329
0.4215236468030614
0.4608297140572398
0.43815794868944347
0.47766574037461995
0.5028581187948329
0.5416714666938004
0.5163411665638301
0.5137330963031833
0.4931576793159865
0.4828337580465788
0.4161681052607878
0.42467274454610193
0.4325509240523405
0.4453051756740013
0.4492876484442789
0.43065864774584134
0.3930853897249619
0.3677689441714354
0.4006757281751129
0.42762931424939393
0.434520878934147
0.40394427982068065
0.43992944836429865
0.4203720705632511
0.46677987453622355
0.40975797288415705
0.5508520622089087
0.6529074065955757
0.8505540899295834
1.0
1.0
1.0
1.0
1.0
0.7214961663729677
0.5644602496476172
0.5734430258062356
0.5294106107108707
0.46966428282068284
0.4369882174851375
0.4273367982838428
0.3819546171339468
0.429987793385311
0.47036443402180395
0.4173115837930994
0.4203771242865031
0.4178127158224331
0.4516504587089984
0.5053225739254218
0.6191603387194984
0.6148157852890153
0.6307308699443595
0.5961663332233007
0.6512452167609541
0.6681722351536374
0.6803827565472749
0.634161938754542
0.6221889723853947
0.6433898755858285
0.6496295653375269
0.6148566352979611
0.5944724891248594
0.5690395419468179
0.5608848009585323
0.5
0.4692897478447038
0.4305464915246168
0.4168269779092243
0.5196940794440653
0.49307719106750014
0.5254198155574467
0.5517791790640427
0.5600777824799581
0.5007143818297844
0.5082195206826504
0.49498708488007875
0.5
0.46666273797766583
0.4976364758744654
0.44965216950947723
0.45054261528653666
0.41571409809326276
0.4272566538994246
0.42018349558591533
0.3933956521736205
0.3654396561527175
0.42816999436766173
0.41427848085439634
0.360613854054489
0.4598704193992373
0.4037674112720827
0.442552417544633
0.48787614170278226
0.48992424637643134
0.4971718783436957
0.4643069862547434
0.4323376077929468
0.4770218732216768
0.4841992891041432
0.4557922342474453
0.47968066113562574
0.5327928641232004
0.38738344012094306
0.3694173843798551
0.4191777405112009
0.46400391955411135
0.5149210811513145
0.49157358439358856
0.5077772600656449
0.5720830900919196
0.4931230005626466
0.543118140690446
0.6018700994039823
0.5434104969430043
0.4877617438611998
0.4915667551695403
0.6171441075739459
0.7676643445580597
1.0
1.0
1.0
1.0
1.0
0.47658544910884393
0.4757268179013085
0.6428275637626222
0.6112424191563193
0.5815214749815212
0.5677799568714877
0.5546292156775638
0.5379225711648955
0.5261308921641129
0.5222366704832947
0.5419787778365671
0.564537819442367
0.575051776310581
0.6375392289572115
0.6008621939686203
0.6422580619541083
0.7250600258602826
0.7304673287195349
0.7566845989005773
0.7778125275147778
0.7868705506351705
0.8034789201326553
0.8405630359907091
0.8207656902567315
0.8741732006160599
0.8654748238795431
0.9076405277813038
0.8942115237795146
0.8872543295869191
0.8038610796055465
0.8004813586073307
0.744252545528665
0.7573698585103021
0.673078569531011
0.6639020699798771
0.6388837559073438
0.6653341640658134
0.6413696633355734
0.6724531215644544
0.6699928287068001
0.6761391225417036
0.666265757543084
0.6651287689086427
0.6784516130831344
0.6888042212047114
0.7157407131971574
0.7074723361795605
0.6998636925906057
0.6660833794871578
0.6625524972512963
0.6386486277645638
0.649151225059222
0.6103631752919068
0.6302666018773555
0.5974889437587393
0.6234489147335908
0.608591831352916
0.6287045529878412
0.5946971019552205
0.643440610887424
0.5847778086247148
0.6147495871482782
0.604508823733467
0.6195392319391831
0.607479191459465
0.6354913920042086
0.6005937262766704
0.6069029498788269
0.595052046348555
0.5730741051906473
0.5711438873208817
0.5504849352525472
0.5667656163564265
0.5527466528968711
0.578101917045297
0.5650087590625161
0.5842583167098855
0.5660727117097742
0.5758731835835215
0.5526672458579709
0.5884947743616352
0.5751091719890363
0.6047464803482706
0.5455598269098997
0.5809860253721342
0.5411157669395232
0.5959268590829251
0.6588555814579401
0.7990822146525897
1.0
1.0
1.0
1.0
1.0
0.7568021202335407
0.5289832307931583
0.6033022774882417
0.6145628479049938
0.5547078511116709
0.5546208339686779
0.5250124148292236
0.545856935998709
0.5212985997243467
0.5476664607111436
0.5318355622709834
0.5667980225714626
0.5493458344112246
0.5678479711311104
0.5428322882315095
0.5718126668629452
0.5632306203172404
0.5805576709821585
0.5675839987576472
0.5958138769659772
0.5845670209854275
0.594141749710656
0.5806987835944372
0.5974048127604024
0.6214375863403864
0.6746666677191829
0.6958097583264928
0.7028360762052644
0.7217526128241458
0.7000681109505751
0.6777281330950417
0.630052875548975
0.6226843831343144
0.5621801056748038
0.5563660958207217
0.5256570758728237
0.5325593962681496
0.5141932971552732
0.5383499965970547
0.5198029089867507
0.5354370114759701
0.5
0.5042324152388671
0.48889081665408984
0.4948976970142688
0.5102581298611735
0.5337061241223411
0.528338516058436
0.5557510611063023
0.5416592288163404
0.5278575941439017
0.5185335924800475
0.513599521866668
0.5032617643408613
0.49451326140690843
0.5121672574546011
0.4878274321580043
0.5
0.47969717310911386
0.4903340546882594
0.4814145170155433
0.4909677464707376
0.46571564741553806
0.48583577053482596
0.4684813545135576
0.45983120725981064
0.4506826075049644
0.5038145051874484
0.5710389994709646
0.6319922138702567
0.8181168181185592
1.0
1.0
1.0
1.0
1.0
0.7530729210307773
0.5953609521012104
0.5959121903418401
0.5338421693721163
0.5107036492864648
0.47842129898537894
0.46820641032786253
0.45967606016777307
0.45358709720948315
0.4225859500224229
0.42393139665835394
0.40091147641814606
0.4101110678303804
0.3721890839592388
0.36018674477319135
0.333648424351188
0.41996725198307283
0.4359779289221546
0.5020067120712397
0.5177781807281459
0.5373533733969239
0.5617796989324777
0.5679450523397064
0.5829730490833482
0.6038497316551378
0.6075691720760952
0.6159732144365186
0.6202751543348363
0.6183136126466633
0.6131532053943162
0.5860217199670203
0.557965650656971
0.5020843182113796
0.4699838138775242
0.4340797758780452
0.3945028800214013
0.35462644099688684
0.3783230562525065
0.4144740743041716
0.5186419216472723
0.5273231941588892
0.5416567046489718
0.5355884687695902
0.5419070008465303
0.5103411644438199
0.540446702846354
0.5203624743248612
0.5212860311856725
0.5003083590132221
0.5148043587068956
0.45127914708983335
0.46057743132502865
0.42803296053506923
0.4316882048273742
0.38211333411698484
0.3643091109211435
0.3372779297098396
0.35209168088296067
0.3849424307407028
0.4450455385017672
0.4929096591056778
0.4687010930311607
0.47687815602622086
0.46763898438773205
0.5016358394509579
0.48649150024142845
0.48240224594712916
0.46412275403814096
0.4734371615577747
0.45444265836356834
0.4661313954525462
0.43713382827196146
0.44185171241749305
0.3962667861317404
0.4155421327334004
0.37624572033299764
0.3898158362994314
0.3784619359686786
0.407082417858559
0.44817792396683515
0.5021240750294967
0.5076292874277921
0.5230837504965825
0.5070263714139591
0.5115219919182838
0.5068156507198195
0.5077545014598602
0.5135490589265223
0.5166478838579611
0.5259197786170668
0.5175893433387316
0.5956970679893726
0.650509788196283
0.9046056579501245
1.0
1.0
1.0
1.0
0.8573241116327784
0.449013997265049
0.3343744864591958
0.44866996055142055
0.4156337202307571
0.42864158542685216
0.40411565060435545
0.44750532268920307
0.43124071420152943
0.42807017059115815
0.41840081963340914
0.4283320845751065
0.4317156056804879
0.42915587640921443
0.4358633418721113
0.4492511676870283
0.45609056000658377
0.4526512774306145
0.4726035076861592
0.4739146797504774
0.5206374432744963
0.5210605694010124
0.5456672932959437
0.556702590121031
0.5770886705142231
0.5692386734860856
0.5811162235351053
0.578469186153414
0.656335829677783
0.6532159175304034
0.6619126927169889
0.6479452654680459
0.6455004944305008
0.6083481251634391
0.5797375693380256
0.5606328399975871
0.5228656133201495
0.515593329246749
0.47716141921969146
0.47815401284121856
0.47295274779134316
0.48787956429309415
0.44549996621572757
0.5084595640349601
0.48508381129696404
0.5301871360961738
0.5152712523965319
0.537581755618309
0.4813380658157368
0.49072811789788
0.443004604918898
0.49151188041308513
0.49350933659736684
0.5051270664511706
0.48558990288756065
0.4702425892959325
0.43737394503891924
0.4361604220200174
0.4556757969276098
0.44536356805760047
0.4416533139574681
0.4354993609320122
0.4661149024099235
0.4483908493708363
0.46732731868632704
0.45610017586869833
0.4928073512275367
0.49144936975183356
0.509554335478913
0.4745608082399147
0.4688724742903645
0.45827414764571445
0.47710377150251115
0.4270037005166927
0.4976031201373405
0.6023256664808168
0.9537933590559483
1.0
1.0
1.0
1.0
1.0
0.6074899235072156
0.563818897068592
0.5916762471198369
0.5264875014846794
0.4738086474331996
0.47059606931338116
0.45014268440268496
0.4638689617029188
0.443939313588294
0.45803200850510384
0.4145920116645077
0.4403687097219814
0.41161245961702697
0.40821787731104175
0.3829987134212137
0.4186909529499231
0.42358032668700696
0.45683337569180243
0.4533466527439874
0.5123732697799602
0.5416927721435281
0.5803264399289393
0.5807666511355551
0.590817111975668
0.5769209947089871
0.5859045561615653
0.6150098243668907
0.6018503295680708
0.5789715038033767
0.5361596724917362
0.5118402180573475
0.4479586570751975
0.4307920054422163
0.3817306921469438
0.37975986319474664
0.35632289941510764
0.3576331098366941
0.32799006238763156
0.3724093887841697
0.4128660921470869
0.47899152396008954
0.49898445989109186
0.5501002088248763
0.5378632361255942
0.5524249157966405
0.530165093257098
0.5298811189962445
0.5253133235799166
0.5162741933442399
0.49130897648681077
0.47120855412454726
0.4556963619639225
0.44956749606570134
0.44394886547793205
0.4184392769839736
0.4012216925674548
0.35302290484681936
0.3494908689206842
0.3182051316479753
0.3294269495915018
0.3098529547825054
0.4152912839208871
0.5817384158292518
0.8705893944281364
1.0
1.0
1.0
1.0
0.9205704576209103
0.552374656896249
0.4682066979588619
0.46742854466813694
0.40039136116387264
0.37975337274547416
0.3614215088877611
0.34876682127878955
0.3263081926851625
0.3406220073491917
0.32820310374844686
0.32281200661064363
0.32383376090156635
0.3285105364867434
0.3528563899979552
0.34153921503032825
0.3585034861875072
0.38945599672451287
0.45172781688708563
0.4391747977153451
0.47148296343182083
0.4621050439849309
0.5080393798193058
0.49329989516875894
0.5290873427741574
0.5461290820342463
0.5942456971384732
0.5718402024183213
0.606974002167934
0.5613393365067276
0.5436860494004965
0.4779354943359298
0.47242491498476796
0.42775266111228333
0.39547087475362197
0.370182393937508
0.3600060606447911
0.36296207101585204
0.38156779786899075
0.3925407857650456
0.38095614521002086
0.38180869193121075
0.35906319210415427
0.37688254287812384
0.3730188581437942
0.3995459091350259
0.3821458509212375
0.4068217047158603
0.38133714686755216
0.420652450242058
0.39805215432797497
0.4103101106952967
0.3767701219741465
0.4183942124567223
0.37130927664447694
0.3792846718997886
0.3607061136139401
0.3801117952234456
0.3728326818874296
0.383588868646533
0.38530872118245185
0.4055517409995679
0.39812993580862893
0.37052976673363724
0.38926522484949777
0.3695870355563735
0.3992706144885564
0.3790049089931219
0.3996292658912151
0.3850595770309704
0.41081546955883735
0.4048698039080957
0.4171420152826618
0.38027106758598517
0.38169897447861717
0.3572335087795837
0.35897736007799363
0.3515183062678395
0.3568888691120771
0.3436059227285881
0.3481283057020881
0.3348264912469017
0.37460440363070296
0.41696221188131605
0.4231981236548007
0.40778522925613914
0.40321149133050194
0.39845735661366255
0.3740370488431933
0.3811291858522896
0.3666053207969221
0.38911866872050915
0.3762708463877301
0.3885031274181643
0.3782708192580865
0.37316685457309856
0.3587231668192719
0.3700228481444469
0.37096358260182316
0.38487266531508296
0.38548384428453025
0.4110512465473078
0.4129951172744161
0.4102747346211803
0.41022880835717446
0.42361683057646504
0.4251554442692392
0.4728220959967124
0.4622475663948575
0.4563174934661111
0.47703893318538065
0.4955555282845749
0.5219695710889874
0.5925735505881637
0.6871676670537157
0.982501643846361
1.0
1.0
1.0
1.0
0.6289976654183127
0.40160301240960355
0.46114587188715667
0.46946231932557075
0.4289657390120297
0.3927331262741122
0.37359896394813064
0.33458810657119226
0.3070464791013333
0.307943503260967
0.396104597635974
0.40698728163364384
0.4004566948472716
0.4089152228399019
0.4088307679776201
0.42098223681195374
0.45237561996468656
0.4553473306125273
0.46838467001820855
0.5090588788957249
0.5019041432491744
0.5052326775381614
0.49976433396406633
0.5376785673431885
0.5414737585296532
0.54616177353807
0.5323760998287917
0.5727629390645735
0.5749703772364729
0.6035881050940055
0.5703144272761952
0.5695840212071089
0.5480524234437355
0.5872930276476483
0.5565060050351649
0.5498365616774403
0.5072314634643081
0.5001227982188984
0.4952289088882161
0.4951340850622187
0.49809651892889406
0.504042450714509
0.4945320882633242
0.48043958721473634
0.473287499838601
0.4656039539489597
0.4753187544197253
0.48220955782894925
0.4981648421874339
0.4606134627085339
0.44733693818190085
0.4022141339885417
0.412969513357074
0.41845938776565295
0.4466415241308452
0.42674567861099694
0.4582388450091142
0.43779494776088584
0.4591546173624059
0.4582893262819101
0.459645789048509
0.43470749893336763
0.44739387324980384
0.4474854814378171
0.43205237822745624
0.4317591707987802
0.4340628401653393
0.41279781735748833
0.3897338283734994
0.38869926847875413
0.3468249731554133
0.3602845395035155
0.35598591521005474
0.41530070818019
0.4046502505256102
0.4329410734541164
0.42232982542323844
0.45214330425853844
0.4536514256773992
0.4736353966213801
0.4546568043616522
0.4760799079484336
0.4530536649055617
0.4753401434672435
0.46718901172547644
0.4687713020679447
0.4676297784911226
0.5167016474824762
0.5761696203410042
0.8147009978649434
1.0
1.0
1.0
1.0
0.629899988961426
0.3747261218553203
0.505359978116638
0.5028278930459132
0.47759294451546375
0.4532687943088713
0.46432354678632864
0.42438405631730813
0.44285731395874856
0.4166362745115838
0.4240846585139115
0.390703994652532
0.4191951024374031
0.4056824687471319
0.42745869346565996
0.40937820756421905
0.4326073582797423
0.4299134634315047
0.4548738845570897
0.4682138826602471
0.5054907658259852
0.5320562594443621
0.5615971082543365
0.5839298909921156
0.5963637473380341
0.5992154830385944
0.609858769175648
0.6177703259319871
0.5915354743290415
0.5909527688719712
0.5457740923499725
0.5302933746713783
0.4870421929210275
0.4750178148649469
0.4411626916571622
0.4421516940689584
0.4086552253997353
0.42857706076899094
0.3902675323355422
0.39200457811342576
0.3800797659393602
0.40735951349986604
0.4105814777473217
0.42459331604144196
0.41486355970754696
0.41569978499107163
0.4434894449507668
0.4661522897973729
0.4581216630909585
0.45004339416776695
0.45498547960919955
0.43800598121927525
0.4515150045636574
0.43626377845778014
0.4312928401655136
0.41543919657815065
0.4308778618540144
0.4067772054698133
0.42196059164429256
0.3817716209867543
0.40538042270030344
0.3947241033140759
0.40346974132939895
0.3796249374434268
0.39281604727456365
0.3648967937589398
0.3786239246641388
0.35569999254744034
0.34497109457136144
0.36364656336431206
0.4556579146999503
0.4903965874530514
0.47594479069249995
0.48684449795553963
0.47741243647916215
0.48629847743087307
0.45860765460602665
0.4695962660165903
0.4417833007251522
0.4450284185801385
0.42104500025834357
0.46792024741397825
0.46453747537327583
0.5283067904681529
0.6154854720321741
0.8901526006624347
1.0
1.0
1.0
1.0
0.7107352627371772
0.5579545632052829
0.5508411135039026
0.5194892455186102
0.45194286785423554
0.43620421642005064
0.39945680410334
0.3993743341839655
0.4113293953380713
0.4023087146452758
0.4273258223042424
0.41456540847932766
0.42149816043939775
0.42548034839940757
0.42627279352048675
0.40981891702911055
0.4304868703972871
0.42010971796470126
0.44608958374920793
0.46572452518309193
0.537970711892253
0.5446426887909149
0.5777573674216261
0.5595407656878477
0.5929528981881261
0.5956506797332586
0.6167104885500664
0.583344312675152
0.5496793301104591
0.4999081497486141
0.47534393494228977
0.4461938887700917
0.4326786861650101
0.40744481024829327
0.4139424787419811
0.4173821425401803
0.413116450019931
0.4202494400683837
0.4035880879879864
0.4196532810452296
0.44700008755379395
0.4819268767142132
0.46545389089197753
0.4656003392536269
0.46686416045328416
0.47549257571425974
0.4555719297614604
0.45881210848033777
0.4355328799357685
0.4411564394347208
0.4274946234282628
0.4270134758521794
0.4215994406035476
0.42168217368502736
0.4152940558954441
0.4145504562107104
0.4043866539052557
0.4006835520560076
0.4008854644603095
0.3818445857692624
0.39471755595803454
0.42069311770936785
0.4435277096844216
0.4223865239723358
0.4295167434847639
0.41318203416019444
0.42803680420812135
0.3971282534661852
0.42521452333326115
0.4006081418395041
0.4146590053153463
0.4599961652547086
0.5556046737209569
0.6809783755865595
1.0
1.0
1.0
1.0
0.6694138196779471
0.4180154945167338
0.46593383396537674
0.448126428831514
0.411681905222612
0.4501743583579912
0.4341303771730459
0.43380375202536053
0.3993359922288656
0.3888476959051361
0.3610016449773514
0.38645372349644447
0.39401075113180345
0.4238578057838362
0.4088733311356349
0.4277618901146873
0.4172319420323779
0.4541517445722228
0.4505390687396712
0.47658860966560856
0.4671600333000371
0.5096661425659363
0.514509084882277
0.5563661686029198
0.5893568353577676
0.6492458909192945
0.629822040349695
0.6198759199780752
0.5932243600585245
0.56571971366169
0.515175149662177
0.4715127196902872
0.4484249464241355
0.41811674972248847
0.43890635595778915
0.4166254109963857
0.4321911201996612
0.40011536516458096
0.41955767038036607
0.3945737782657134
0.40743391631217235
0.3709208786803441
0.39173893886347766
0.38918176677787164
0.39298915551426894
0.3561815619988624
0.3776095275597844
0.40938456456662503
0.4668138328444115
0.4569796738722111
0.44783776059280395
0.4388717228165822
0.4597980001807326
0.44146879221666985
0.44554952451296403
0.4562891906094134
0.4470502674151692
0.46037694383227634
0.43785042524484685
0.448711750003323
0.42475294220330745
0.4279381262160375
0.3979752957877162
0.418944412270013
0.4026544073861535
0.43943513505818527
0.39786471356464415
0.42839575163404114
0.39707036652379013
0.42449117646566237
0.4270901030759907
0.49358345008528515
0.4824310065153673
0.5002400611287411
0.5144373336862758
0.5816418863223114
0.7334755290500098
1.0
1.0
1.0
1.0
1.0
0.5300055423209529
0.3792205238564216
0.46569209060781913
0.4651933325375149
0.45688578032002464
0.4163566152075269
0.41156491536544093
0.38823487392438266
0.38974878838791793
0.38764349241114343
0.397525382004965
0.4071844002681505
0.4419464007437863
0.4236308897159648
0.4460563666644539
0.45321152393478653
0.4629248565794139
0.46056324217499844
0.4764895601564885
0.48325871226897393
0.5011583134621403
0.5156814304057333
0.539238463138026
0.5695610309378951
0.5694104890825734
0.5973313169571919
0.5881263790332509
0.6024354612368567
0.5887721480989853
0.5840153748151267
0.5410801279025039
0.5112148910383344
0.46063861496591507
0.4523722798851494
0.44397099430206854
0.4798721433085289
0.47574753119916957
0.5020572776875751
0.4708583303479779
0.48033278646671274
0.4648227568956701
0.4846195731218608
0.491570667107344
0.5076349200048197
0.48355288875400904
0.49867376607961933
0.48992950692342035
0.4795391704378306
0.4771390511170012
0.48098744110154146
0.4880292351735517
0.4654223545974626
0.4737375566542445
0.43920901819543917
0.4307483709329084
0.38487915138795087
0.3953436613162447
0.3578622277738048
0.431160749034296
0.44121560469962573
0.5095368220004719
0.5351151179165522
0.5567194859734405
0.5145777365323615
0.5324760356970868
0.48487480006780076
0.4931072102462994
0.46533936910900947
0.4529715481344191
0.44867521204733557
0.46300685651268064
0.4569286550244195
0.45073286471321816
0.4556314288728346
0.44225480977025944
0.462052656790089
0.48208379963446013
0.580488247524083
0.7579436730494041
1.0
1.0
1.0
1.0
1.0
0.6745711795969862
0.6295752179807597
0.5833348301777008
0.5545063545652964
0.4936693317850994
0.4872146528856221
0.4489710937344296
0.4430342219814974
0.4355822283436276
0.4374186380902456
0.4273217845156453
0.43391921455398536
0.41955948122297426
0.4197560734767344
0.4345638609664383
0.4306598498454304
0.44561637626515466
0.4652577520572718
0.4921859879285342
0.5120515375058889
0.5260576447565535
0.5049501587322449
0.5355214125797012
0.538221383461226
0.5941885472745085
0.6220974749115922
0.6688532704770225
0.6287732368992833
0.6632779409193825
0.6307650444099271
0.6413492536028952
0.5923138985498793
0.5838673271114196
0.5341215333807803
0.519402416868765
0.4940878554212566
0.48168216385849705
0.4697247799227027
0.48672150023700916
0.4949695488086645
0.4650504006500068
0.47031673660342255
0.45089139545482404
0.47767609890095175
0.439889319692238
0.4497790689868963
0.430083581046108
0.45934313410804667
0.4750418801328922
0.520647442586881
0.49419641182299767
0.5177146396590314
0.49549466832112554
0.5073717357432249
0.4779071161951521
0.49357380779344806
0.47847419084244897
0.5037138232754694
0.47425674546478336
0.48454284582053975
0.4658741113314829
0.44920664922705694
0.4419081425226509
0.44471079849989276
0.4357496411078456
0.43544521087718735
0.43364561621203135
0.4323479087452367
0.44959766015096037
0.4466338860725241
0.46556116585262713
0.45606683687989336
0.4706136087398778
0.45250274251795347
0.4650133549520512
0.45441168272817806
0.5037842161691748
0.46332267615841466
0.48218474822794183
0.45296787102412084
0.45128073035676247
0.43035046823913226
0.4544079396901555
0.42744469514277467
0.4361874958217965
0.4343431391162322
0.44818858245237286
0.5071447898209788
0.5808001523671648
0.8047769292352017
1.0
1.0
1.0
1.0
1.0
0.6612285574873589
0.5643265991961374
0.5829399469038126
0.5254221684716424
0.508957084172567
0.4693730586924681
0.4669953416065534
0.43532384541821595
0.4357789582605795
0.4016600108197023
0.41688508914789485
0.4012155267768763
0.4130161741829673
0.4113290993646836
0.42095724759998215
0.4343261849367813
0.46260862399937297
0.4877492082548425
0.4945233128767468
0.5390666908619887
0.5838423621122877
0.5994686654931364
0.6157080711422084
0.628076228318881
0.6313175265799152
0.6436688477734016
0.6367380374691739
0.6584690248990884
0.6364927717157546
0.6578008901536248
0.6125179190290686
0.6187624020574116
0.5579244524695903
0.5481333162643264
0.5172200406466103
0.5234123503003065
0.502674128951716
0.5132901671252326
0.49630651401046605
0.5071942569264765
0.491518191480201
0.48228955078116975
0.4690975472069764
0.4718928391670721
0.4740099501811579
0.4700375011311116
0.48284708702537893
0.4640618185491817
0.47786316346459257
0.4615586611107079
0.4656179506876059
0.4451443229192097
0.47574416074916837
0.4769111771558953
0.5177081597824217
0.4957106997036118
0.5248213019751586
0.48951085935948013
0.5145523010539226
0.4865477493011305
0.5051667711149079
0.46560719155636104
0.4711088612504518
0.459917601497238
0.4627338664271442
0.43457115120118506
0.4506143329704555
0.4429422142778976
0.435257579059229
0.45618631442033236
0.44022401625508306
0.4418734137161078
0.43565127996494046
0.4662870868664105
0.4686243664835848
0.48689585824258275
0.4763611619519466
0.5077440464795633
0.48641553359289136
0.4950449042879893
0.45200404634332314
0.4555721076765222
0.4322215410238558
0.46049367278640874
0.4502464308086517
0.49264440659891673
0.4543671243841656
0.4790642379021012
0.4488273999149011
0.4489710403345196
0.42890688569599444
0.4364610086426885
0.42719273198700786
0.44641187394468024
0.4588460958245437
0.4732009851295734
0.48925649416042544
0.48001651482365065
0.495573712743205
0.503338855380242
0.49732139755992666
0.4842839665063365
0.5126613913029362
0.47844051957129563
0.5240783881844785
0.48695682912959837
0.5702657339758705
0.6373704259675224
0.858104880627011
1.0
1.0
1.0
1.0
0.9989593389562066
0.5132352816301569
0.4124153263323403
0.5018313387289195
0.4755972261021467
0.44710675946498035
0.44241323514168174
0.45758436045018336
0.481210298100749
0.4805320978111972
0.4907128691963947
0.4762204682253162
0.48319428908686773
0.4628597414417205
0.48402085976312276
0.4594705049020232
0.48803898507165233
0.46826886067765744
0.4883526565858757
0.47808744457414826
0.5163786846428225
0.5244608666591146
0.5695542322178208
0.5610546567905864
0.5934651541528349
0.5903892382742265
0.6238085577220465
0.6128682855677514
0.6440340463818169
0.6319979137908389
0.6448079624530008
0.6752234511965126
0.6650580951497628
0.6364379968978229
0.5790137514928642
0.558807843061286
0.521548322669335
0.5167706627295855
0.482322131934459
0.47834228514106397
0.4427414648692065
0.47720459862286957
0.46308657755566396
0.48697784816331746
0.44835429077827216
0.46605002019578406
0.4411501526745202
0.4714492579597704
0.43980719411237307
0.443526397003599
0.43080618274387356
0.4788722268904827
0.5047220369698224
0.5278096242000199
0.5245036787120421
0.5384395867435063
0.526131389637299
0.5225544017276351
0.5047392857077322
0.4925396630893045
0.5017167294528414
0.46726404547980616
0.49734629240968237
0.5102163723412797
0.5096536039206324
0.46978703989454623
0.47274858682506193
0.4320711946418447
0.44277799971809484
0.39419805535777036
0.4076281421059213
0.3632899123076915
0.42729319104926533
0.4605080976148696
0.4888987571519444
0.4684174761737244
0.4843976111489031
0.4575204063286077
0.4630085762791283
0.446142218640215
0.4344148761122675
0.4296178960245152
0.4420867379757558
0.46627037709566127
0.44644313898081034
0.4423937062896125
0.4331919556695277
0.45366019075691116
0.43167239531757085
0.4515081803077202
0.42868807473627124
0.4403884996242236
0.4279503420190111
0.4514345175733526
0.4312389239822091
0.4535730671900418
0.44149424361610123
0.4788746775044633
0.44930456702093446
0.4767706477007018
0.4627346797466313
0.5552171960563427
0.6291516330960627
0.8541529394028032
1.0
1.0
1.0
1.0
0.9522912652217469
0.5389453040413474
0.5343159556706907
0.5205444320617192
0.4971686671986951
0.4654054672737601
0.47797316001558
0.4696567457892889
0.47793649341945843
0.4419295222123566
0.4563795297417782
0.4444693156165405
0.4640834944137673
0.4370618001091353
0.44455140576883484
0.4378893636627648
0.4666944333695756
0.45618079924422794
0.47682858133767303
0.4842320554343358
0.4949790598261477
0.5115260426310544
0.5163146434168651
0.5336570604883446
0.5507549255086268
0.5890194166215035
0.5972225586737214
0.6765348260815592
0.7105835533730505
0.7210022111719979
0.6698526171086889
0.6295705953027884
0.5591108037466881
0.5177087529532998
0.4499823808893244
0.4678712942791495
0.4164501789019036
0.433088444376805
0.4018591890689317
0.42364097697989944
0.38885919758779447
0.4126020203390368
0.3995411835207226
0.4353855482008876
0.4278260480749836
0.4728714214133823
0.4873081145418182
0.49148504156554845
0.4527224634981731
0.4296430181400356
0.3966251153562307
0.41912810393370414
0.4935968882149768
0.5157763704621635
0.5315931923181563
0.4997017084090557
0.48437367018737926
0.4656653536049172
0.4592083932840157
0.43391251150951177
0.43521210238818686
0.45309226657379237
0.47407171020523264
0.4599840534879197
0.4903774442670238
0.4599104393982052
0.4693849574014853
0.4288861261538578
0.4259159732481536
0.3938104180724085
0.39038142554462263
0.3631868263146446
0.3530238776661717
0.3475338182889389
0.3858552076736127
0.4832348901063964
0.4941244423994391
0.524001075784265
0.5885009583332083
0.7517155105804558
1.0
1.0
1.0
1.0
1.0
0.7139308242800793
0.5492894333364452
0.5367289508658979
0.4605611372969727
0.4211091159179737
0.3904752723635185
0.4069920115024849
0.38183702592110735
0.391428048986363
0.3845101307084894
0.4382647409622222
0.440910493694175
0.46064093902777026
0.4868074350856329
0.47875573087994044
0.4644802468304956
0.45276588466951423
0.4832653374667153
0.47645478156280935
0.5023788197951029
0.49764568399317144
0.5424509199674052
0.5347415125363819
0.5799688922764684
0.5752504207223905
0.6239780547564016
0.6299768389193338
0.6677255074686693
0.6108801669299885
0.6019736626871512
0.5469011648015134
0.5541636435784566
0.5205895062785656
0.492450034667378
0.43469200706734307
0.43310191102335815
0.3984477178590978
0.38791291355481217
0.3868901260484932
0.4060724885063678
0.4071052165726332
0.4060445183814595
0.41890726832918757
0.4079465299829906
0.4275992283375117
0.4155351144575824
0.4317229069821762
0.42368202405558997
0.4497232109912025
0.4228893187603154
0.4479088497686579
0.428217488840047
0.45297892028001135
0.43470340982672573
0.44310092936532114
0.42774809692090576
0.45093125799705164
0.42783018891689206
0.43937771977521767
0.4225315294157925
0.42883871694640235
0.41949644491971066
0.4183094355383135
0.4268875355511634
0.42928919668199406
0.43711130127926723
0.4226704416313004
0.4410832627250244
0.4163421357629426
0.4382810904708433
0.4147276007112284
0.44188614906566637
0.45050859697747603
0.4802274359487244
0.4414993136686268
0.500008430798059
0.5541864464455332
0.7763210903405129
1.0
1.0
1.0
1.0
0.973599899409022
0.4536338374282131
0.3818144895383803
0.4650283774553886
0.4355130386831717
0.4243295218469402
0.3899407969503181
0.3907706988622571
0.39228281246824287
0.37260579433223173
0.3629613574231665
0.3350322951067475
0.36143710881311547
0.3571919128334488
0.3860653699570903
0.38096395826233287
0.41573278962489135
0.4118639758830581
0.4637127884789294
0.463990224660925
0.5300860251385978
0.5235936688453043
0.5780855949561341
0.5915781954722668
0.627278274347549
0.6510097627106977
0.6860418028643833
0.6556756085477148
0.6469297002316623
0.6145542033744047
0.5834107417505103
0.5323043206903417
0.4838157688719854
0.4741650103852309
0.4242883723547143
0.4120661801123367
0.3890977352704824
0.4060190012487034
0.38343031331332417
0.41204231836237815
0.3967810719577279
0.4093571598561754
0.390863903656525
0.4252660699155436
0.4074124410251024
0.44166954640182465
0.4109858233412174
0.43026397753752105
0.40182176463238806
0.41209678465590044
0.38626698440507407
0.41771494616178445
0.41844146572379326
0.4366853961970846
0.41906451994483235
0.4243993256727473
0.44548828507254157
0.4508656355997446
0.46040561199825686
0.44756463396975477
0.4387278187152372
0.4024573858178764
0.41527783991450573
0.40212275335574776
0.4231419422222789
0.39582218926843205
0.4054610045605231
0.3706366889546982
0.37581712660634814
0.34267107797877416
0.3771359567092308
0.3479569199177029
0.37166250790896377
0.34949072735882547
0.37213816453145565
0.36210295189312997
0.3874776185401651
0.37149838472124835
0.40391155587164834
0.4373249210000004
0.4913458762389622
0.48432037383260357
0.5559818311863558
0.6565599549723193
0.777808078319817
1.0
1.0
1.0
1.0
0.9584289731988523
0.42824674812214464
0.4213366880447949
0.4564990676198993
0.43090870506348783
0.3888949745958443
0.37456541565718116
0.3555032379813877
0.38519741863498436
0.3786295438019313
0.41545569467360866
0.4171496598096084
0.42359256693160424
0.43787434016008325
0.48206103495767627
0.48172957395580324
0.49442864874710546
0.5169169030630527
0.5137786545190574
0.5374656677041824
0.5301969335099234
0.543742221866066
0.5429921798053005
0.5664449127363788
0.5721368455015419
0.6076523900320183
0.6156026831120496
0.659542053575191
0.6135728495872433
0.5863274357076886
0.5382575440841464
0.5208664152766197
0.463613256926931
0.4893367995721749
0.4753504987000826
0.5007376095150576
0.4787702909922354
0.49837423206889114
0.4835276399992293
0.4921158369871189
0.47586763124680226
0.49249987610220886
0.5067167843273757
0.5885134222929723
0.6942081296670984
1.0
1.0
1.0
1.0
1.0
0.7399281606952421
0.5641855042804467
0.4924306749006887
0.4657098690880721
0.45898546107490024
0.41910486288135107
0.4305360896901318
0.41865755363720475
0.44692249018758545
0.4311273755964612
0.4449279798935296
0.4239577212891895
0.45075961342584936
0.43278329873840005
0.45011909121749333
0.4429628173247443
0.4640729513814847
0.4636223288508921
0.4539836328225947
0.47786326711705956
0.49946497204414797
0.5185555144599461
0.5229647131858097
0.5491751801347208
0.5456974472724081
0.5621624157123909
0.565622209277627
0.6349987374369215
0.6259354315640279
0.646633652990744
0.608704486707701
0.6171352498288443
0.5535634417915871
0.5381102640660931
0.5068696178624477
0.5120571896736329
0.48137225487956836
0.48243855255507456
0.470502452507251
0.4657233395495409
0.4574694757221258
0.4588616575827619
0.46117409740423165
0.45804467259737647
0.46113361307565537
0.45890482931702054
0.4666951312102401
0.4295624557153597
0.4194144976012404
0.37933565288751286
0.46082859495644835
0.48277360981280204
0.4995330413755227
0.46600126511043116
0.48496481935272484
0.4630358007815916
0.46871349870996426
0.41545198811012635
0.42668173687504957
0.3836031474985173
0.40539138813726083
0.3843870178178584
0.41904910246527927
0.3965754056662355
0.3876692012581922
0.3677206685974973
0.3652194149276663
0.3529834746931373
0.3240154879101246
0.3241193152227613
0.3468721495416552
0.42733562300718686
0.45475350230429107
0.5464841318638188
0.6189919801975945
0.8932026104327431
1.0
1.0
1.0
1.0
0.9086061581138491
0.6204468875276165
0.5381320561236426
0.5474556931928293
0.464056047353819
0.44964611100778684
0.3974008279628871
0.38765834004902855
0.33869568468403416
0.3704965929511227
0.35304096894322956
0.3648234826805291
0.33756794932852124
0.3357159331091647
0.3565725539138345
0.44129375376857904
0.4738792621434464
0.48927090110878774
0.5181997120084791
0.5176577339866466
0.5332121852194175
0.508841352676537
0.5206351426029452
0.509563759841795
0.5237460358105283
0.5179402747231788
0.551064626464372
0.5577657257496001
0.5701156017999465
0.5420198566011735
0.5429176887893696
0.5181644962793673
0.5181397683776221
0.4698739198352759
0.4807988656518526
0.4643600088138796
0.4648290735556516
0.47600373765187054
0.5227490050486313
0.5454354015385303
0.5484170122720722
0.5449001418362409
0.5396175964453895
0.5404013398647629
0.5085441284136039
0.512066040890148
0.4806857297759334
0.4969213332599983
0.46566441170880585
0.4731176351588681
0.43061901867083474
0.4485764677198804
0.41993391294056515
0.4511707274045101
0.4356879035907828
0.45282143685941617
0.44613426599949674
0.47927932845042615
0.45359814793056963
0.47761661268067834
0.5095426147297105
0.5363408102551617
0.5320744319888433
0.5004882612911545
0.49017109941780646
0.456769557784667
0.4460467659651526
0.42168551916734404
0.4363069078904854
0.4274676595064702
0.4326606992501196
0.41871098919239474
0.4325598517325367
0.40930728122826654
0.4250367819703046
0.42324593679072714
0.45532227747352894
0.44677881274279035
0.45960739060080485
0.4424685038748334
0.46548864245664595
0.45177499491542594
0.5197427897316542
0.5744056279241125
0.841466456494623
1.0
1.0
1.0
1.0
1.0
0.49532971383981683
0.41862946661873546
0.49009948196823805
0.47086796281531973
0.4293958941595723
0.44944364094478323
0.42972563135313563
0.4350266617802171
0.4156604463848976
0.42242445016945795
0.39863599733527416
0.41001213992582664
0.3998119656954122
0.41672587008863726
0.4134532309438548
0.4465859440570089
0.4331466461722958
0.4872778424414358
0.5089984418046452
0.5498027551600164
0.5336433319179392
0.5361660828984679
0.5362965623278784
0.5737561509231653
0.5926651246666613
0.6098831400698383
0.6457700170028046
0.6482964329900693
0.651218690666328
0.6339980561648753
0.6102310487849038
0.5477508443000945
0.5464393691146469
0.509009857818399
0.5114168283020498
0.4598840125473746
0.46923209682997447
0.46444955194276283
0.4949819729976997
0.46645871883931217
0.4965194490464473
0.45763436327723134
0.4652785642865725
0.4655493258259886
0.49852399401447345
0.49411157877914047
0.4993037115101463
0.47738556703272284
0.4963097431561779
0.4837047792979833
0.49212650095224336
0.4843426736181743
0.4548813911268038
0.46535457903129773
0.4692435340534316
0.5147445074338097
0.4770305634158062
0.49150415417658133
0.46563038753768976
0.4884395621341688
0.46738512109322417
0.49623818606724546
0.4733330438001401
0.523365982511214
0.5155544290228148
0.5768891179712428
0.6090402942323834
0.8816629185526323
1.0
1.0
1.0
1.0
1.0
0.46632585628850637
0.40189829990987835
0.5303972776473298
0.4833536935726078
0.4434003961661307
0.42983971496640005
0.423770079084928
0.42610428158128677
0.4145646352439418
0.40687001714241255
0.39214390137630756
0.42796139139927974
0.41221619127898723
0.446379792777552
0.4461785072040124
0.4747184132099277
0.46133152232342456
0.4851183152861401
0.4771269906202358
0.52009076829919
0.5218856837034106
0.5393067870656147
0.5482451503423318
0.5939249881449908
0.57335665643613
0.563554003482698
0.5774285318679216
0.5770054489583305
0.5717962713316298
0.5413127084291738
0.5426140646978005
0.5162187139249863
0.5214419234581417
0.47060562257718946
0.4879908066070323
0.42707428667868774
0.4579365654863742
0.4589568200892221
0.5146363554597391
0.4849812836361428
0.4953887041232409
0.47159211566449893
0.4983363978393748
0.48532950595828356
0.5209066978690957
0.4892547469830368
0.48776175597768273
0.48568049315475487
0.5156563752478316
0.4907872342493544
0.48394565006765067
0.4819011266612083
0.46507287848363693
0.4619358734431801
0.4515308621164048
0.47163432503531605
0.4520061728367799
0.45355094791774897
0.43995197884262555
0.46528659080841717
0.46697836164203566
0.4792353280744259
0.5065434151066357
0.5509026316667024
0.4932972910338137
0.5075171489817961
0.4939859317792881
0.5201941165838063
0.5115692513557367
0.5405734307991114
0.5226714504935713
0.5184773476932945
0.5273494951855983
0.5967208597818139
0.8163685450836905
1.0
1.0
1.0
1.0
1.0
0.7750201615471404
0.5942841866503082
0.5739586752831827
0.5456188303998373
0.5233823142199767
0.5166819457001328
0.52750674862472
0.5166368576223949
0.5448731814898748
0.5074496784211953
0.5224865751405047
0.5003411056976185
0.5302129790852419
0.4799787683240835
0.5033717690481098
0.4709575218371965
0.4804439172352028
0.4524825505737048
0.446194282577296
0.4272476208324276
0.4634512700998804
0.4585006046257981
0.48535586613214443
0.5332836721494807
0.5543775469306667
0.5817655524348035
0.6132664938795578
0.6979794514575492
0.7086867050559216
0.7495033945888636
0.7061306412963733
0.7173421351666207
0.6657124552509212
0.6535519902148107
0.5964125794992071
0.5767701346723901
0.5125676456601457
0.4942916940551004
0.45816066856679727
0.46603785989459234
0.44350328889835894
0.4471979150927285
0.4549131723652803
0.4911929982739315
0.4896254546428477
0.5172643304675502
0.5327504149716424
0.5652799681798095
0.5917876482503838
0.5844275578210325
0.5960034418260189
0.5915147286121945
0.6252474171955417
0.6085574555066936
0.6391432170789091
0.5995641414165622
0.6497731358499244
0.7112588552419357
1.0
1.0
1.0
1.0
1.0
1.0
0.6876494123683582
0.6209763853575654
0.5908759513958033
0.5537040010125835
0.49854099656384304
0.4799581725015159
0.504115064479296
0.4994918816643518
0.48464845648206756
0.49154937099569357
0.4532824590433043
0.44287179466165705
0.4194302513239845
0.44517077547539347
0.42395765785148554
0.45984651994489034
0.4360692395349057
0.46777261973203377
0.45002971198570574
0.5336264013410098
0.5357820117663058
0.5993614495997667
0.5743320874749428
0.6450209337814198
0.6618084922373237
0.715976269761453
0.7066420774036845
0.750272737257904
0.7366840266330413
0.7178786627099192
0.66489814379603
0.6355288489925719
0.5826942066957346
0.5566242098916344
0.525106923454389
0.5010460538316963
0.4924047823072459
0.49487119288234505
0.5041594784510595
0.4938546804694159
0.5144334314887687
0.5008276085282009
0.5156033994089545
0.49950334308570116
0.5534986188906239
0.5306065451890587
0.5617932894971487
0.5186450750607134
0.5301808354230019
0.5166841579615904
0.5311716728798291
0.49999271188373634
0.5228937424522189
0.48244252214375916
0.4894576214247329
0.4437116776711648
0.460637638934745
0.4479161728511677
0.4428444461574057
0.43355647297515576
0.44591021084794136
0.4450837416040561
0.4449266757569782
0.46393366357262417
0.44553039966694474
0.46291994187001084
0.4713537428591207
0.528207008441606
0.5545709829273601
0.5674435119272646
0.5219895408204233
0.540316950024638
0.5211399614203587
0.5456164938245313
0.5290205153369681
0.572356847644007
0.507082848019429
0.54109822725474
0.4818105391802672
0.48720417310545316
0.4582443521372722
0.459192474752382
0.4619571734084172
0.5006176040785902
0.5085322448325169
0.5026940484685994
0.4836546112144859
0.48420878392761724
0.5325414398125197
0.5559751234848964
0.596886058657422
0.6219183935459991
0.6752577022292241
0.7495817136586354
0.9643385516603267
1.0
1.0
1.0
1.0
1.0
0.5494769782017821
0.35721649125855653
0.5103633570128057
0.45748689225369155
0.45424015938900875
0.4098886614283441
0.4084426935115316
0.3970489898378946
0.3912101176594872
0.4169927869986122
0.4379731081554752
0.4633856034688784
0.5143602506217848
0.5412927751429197
0.530082319516742
0.5562970131403547
0.5584211762346483
0.5816328426086247
0.5603302427943553
0.6091727636570022
0.5664952539466352
0.6058369999636432
0.562814097727335
0.6231174291308685
0.6479270199728184
0.7000510497587553
0.7001196542854842
0.7624073891072607
0.7455523150633907
0.7829551613752697
0.7237187808672614
0.7365961967772562
0.7348058878875534
0.701435724718306
0.6729792462708883
0.6370058140939441
0.613711489572865
0.586505922027202
0.6111456699651729
0.5797824054700167
0.606477877504284
0.598185918251886
0.6446310440511865
0.627920165129997
0.6138513199481213
0.5904513890188045
0.5952628952809235
0.5626618646259101
0.5944794708947991
0.5713637202529298
0.6344200666540312
0.5818093433050134
0.5775909852921151
0.5723299602682063
0.5782151728218101
0.5721472994863033
0.5767424219175504
0.5606702915085116
0.549006967690345
0.5332622274981996
0.5446019309857164
0.5417243933032199
0.4926471232885631
0.49646105610072466
0.45969426197149954
0.49477634882454247
0.47154059248080155
0.4802691616394016
0.44814960229534967
0.46926817843146484
0.4047853300907813
0.45752196223701247
0.4691568674263246
0.5296302986856581
0.5259171855018936
0.5630657627078774
0.572978710989734
0.6585577198145067
0.7159490584004244
0.8619294876153027
1.0
1.0
1.0
1.0
1.0
0.771717350318777
0.5220173298928611
0.6166056479801465
0.581958833326026
0.5120560032312113
0.4591848535212555
0.4140353842089685
0.4161172906503302
0.3768211342276458
0.4059114313635234
0.4131449211330824
0.506070626913017
0.49730622103967786
0.5231387424671643
0.46898920771039165
0.5227099074828081
0.5455091184533465
0.5934048131567422
0.582074241670284
0.5992436371932632
0.5997769909244418
0.648659540893678
0.6452468079155148
0.6491332293147198
0.645035080618236
0.6407817265504281
0.6470842590253192
0.644660427220183
0.6433939205866029
0.640453005863335
0.6232469217493539
0.5980081557025848
0.6004675487543909
0.5589019626654131
0.5700885532328328
0.5467336382773892
0.5627399004397833
0.5339857002219851
0.5680338493303949
0.537963996653709
0.5844975829277044
0.5501841590745612
0.5823829697202659
0.55292429290224
0.5568712089490289
0.5441918491154889
0.5543977039709405
0.5573778773656407
0.5954009694935344
0.5883265142194025
0.5678242280115106
0.5832478333741669
0.5490857183129378
0.5230600964743704
0.5098087775568304
0.5241314594576331
0.48830324108983864
0.516158145799688
0.49956133998962404
0.5555865903037377
0.505840964817806
0.5392501171397374
0.5574642722376142
0.6548485146251876
0.8999667239857796
1.0
1.0
1.0
1.0
0.9351964466588166
0.632306178138355
0.6477162540542662
0.5942663329637469
0.5262730274619773
0.4877012031057095
0.4841711530394738
0.49387894543086314
0.47264911569456125
0.468316273134474
0.45781353882646203
0.4884912214965279
0.4776404091900325
0.510265924391321
0.4869882601586689
0.5306060957914596
0.49574129331226346
0.5496310023959249
0.5299089383272817
0.5697890462850005
0.5710586451456209
0.6026430603115822
0.59338265458956
0.6603147770114453
0.7143827630795478
0.7745218024812864
0.7369740464448225
0.7257916727195541
0.6912172973462238
0.6513176459780282
0.5894727218047237
0.5453279865979186
0.5172306574236138
0.48406034080498095
0.48783568128723365
0.4658892551074564
0.4735471072306218
0.4690001807579103
0.5200597506732727
0.51711059931798
0.560617025854034
0.5665926063538922
0.5728357312068446
0.5603409634292011
0.5901200456590969
0.5647425793242506
0.565645162189653
0.5312390222145087
0.540806042494165
0.5236596049050553
0.525475638239138
0.47538649069723327
0.48925444794954603
0.4693440220222548
0.4916610592400644
0.5219752189799006
0.5052815540014125
0.5216675161991107
0.5109441626263147
0.5107631007064819
0.5113533941384076
0.5393331350178963
0.50289135746127
0.5212306144384655
0.518054644214242
0.5461436929813583
0.51970573117169
0.542689090320922
0.532689603845321
0.5486753910351748
0.5178415563455714
0.5397640457219136
0.5156955855367317
0.5454538418043247
0.6149223391323829
0.7516880419599121
1.0
1.0
1.0
1.0
1.0
0.9983039649682052
0.6722483427697064
0.6562603991135341
0.607774166347906
0.5240719527404225
0.49930135490058136
0.4560255455191631
0.4765176877913307
0.47068522555285525
0.4873361152906841
0.4532385318476537
0.4892083126010637
0.4858902084395057
0.5422597239856103
0.5172442852201887
0.5853644513621645
0.5727637036450557
0.590314253101823
0.5700987857301965
0.5830287003481395
0.5638167588944345
0.6277157302396416
0.6277335837450726
0.6749540830460662
0.6703842527027891
0.7063860077281757
0.7268534546364088
0.7501351066672648
0.7789220733682735
0.7603000262458405
0.752828011378648
0.6869655384489484
0.6837938675474088
0.6554953949951421
0.6598222076708022
0.599919349741406
0.5929252675639102
0.5531103534432738
0.562374731601972
0.529316356897407
0.5450691675565749
0.5333302021164157
0.5689007522883434
0.5690502634587491
0.6148110710492094
0.5848045309309045
0.6302088799078286
0.6124364105618765
0.6337065483531198
0.5919052962617133
0.6199304772428867
0.6030459803897525
0.5929550381131262
0.6010637533793121
0.589900563807072
0.6162218782661503
0.5781879978710999
0.5945556379146251
0.5418510651566586
0.5573665259083567
0.5052870414275341
0.5136043250524438
0.4887481125698302
0.5280742175180569
0.4964329631461605
0.5455497826649907
0.5132309032292598
0.536749448694397
0.5422852373423825
0.5796092387790804
0.5778373582404294
0.5804207380052031
0.5676733359631664
0.5611985350355949
0.5491305531621248
0.5548150673598966
0.5714611546198296
0.5521394054554949
0.5330459244123384
0.5365224907690377
0.580482546151182
0.6388708513307779
0.7696187682657106
1.0
1.0
1.0
1.0
1.0
1.0
0.5462376309210291
0.5516379227425577
0.6548706262801849
0.6117949341637932
0.550218080459728
0.5261147407467525
0.5100884603510238
0.5153774721525066
0.5001945318299728
0.5035685740385364
0.4899389401046127
0.46838188505703027
0.4545383198094746
0.46679477493672455
0.5095513774196097
0.5366562035798377
0.5835279814674602
0.5803188450469323
0.6114602383799954
0.5961035146250049
0.6301807357889944
0.6150542967105024
0.6615664069756534
0.6355896692534307
0.6631675885016411
0.6449147817578177
0.6868005597290209
0.684076479098724
0.7314550708579638
0.713927820292534
0.7295162713334665
0.6817089186427853
0.655787821650738
0.6051030590672599
0.5951836100930705
0.5718244952309032
0.5479028072623723
0.5101934603236298
0.5080583986575736
0.5213155267427605
0.526484326053047
0.5652405606802291
0.5717325257085271
0.5743599329380059
0.5578074571357989
0.5723235573179208
0.5477491941348153
0.596540245140737
0.5698390375173548
0.603446137453777
0.5561778139425674
0.5880984203878433
0.5476799200109448
0.5523278219041339
0.5246949894255293
0.5599608848346345
0.5428560070262846
0.5472624724541788
0.5154897052073197
0.5345621386802517
0.5245897412174627
0.5325546800432733
0.5311652211260938
0.5243041580312527
0.5349380389179708
0.5077042767893348
0.5288537797893104
0.5016275088173358
0.5265748457468042
0.5010220225786916
0.5320757138793459
0.4966043740371324
0.515440000418799
0.5041370173681898
0.509502392309592
0.49130861510489565
0.5085488712994493
0.4964084671598913
0.5149369706304233
0.4982058934900948
0.5177450633863777
0.4993851790878918
0.5171885092242586
0.528116771913401
0.5553663551889756
0.5484113175728457
0.5598991687035126
0.5449324392814131
0.5426130865363341
0.538248414227719
0.5170130257927481
0.5367254440156984
0.543179082772629
0.650224360349366
0.7806674828128208
1.0
1.0
1.0
1.0
1.0
1.0
0.6993270039823588
0.6830061559305167
0.7183995858803298
0.609807297048707
0.5866153166907638
0.5043392520548957
0.49211331707336736
0.4395969966450012
0.4451980224798501
0.41257597884518243
0.42132153103434244
0.47152859855935036
0.4796197673784645
0.4846937993295832
0.48439758293201496
0.5207557979000892
0.539031437934366
0.5743992510906278
0.5823359142127527
0.5934696164078856
0.5909616561898312
0.6428400945553513
0.6188826865143081
0.6409258529123212
0.5856602215134739
0.6516421652316794
0.6576100284360368
0.7718315924145005
0.745154074016026
0.7865520012908835
0.7395067804554053
0.7560160540712166
0.7189864729157202
0.7322691218599825
0.6873654327729051
0.6816704256159558
0.6675975995171076
0.6461049112637536
0.6168147242666874
0.576861110665103
0.5801872356598112
0.5418348091677045
0.556454862944932
0.5287950582554368
0.5542446542948609
0.5207266094653693
0.5321983609307245
0.5000456529295095
0.5037293867982611
0.511837157020451
0.5638577410966017
0.5513036324318445
0.5835346390643982
0.5977597157794052
0.6273856614776343
0.637161136688556
0.6381237127234406
0.6179129309396642
0.6259308322042338
0.6118300739376368
0.6096820443441808
0.5825495455756033
0.6012669186259484
0.6770842871641296
0.7708980159605245
1.0
1.0
1.0
1.0
1.0
1.0
0.7758540036667932
0.614899719247762
0.6110023326736134
0.5550345055237987
0.5512661605479431
0.5560043262705705
0.552248657489751
0.5520655850441375
0.5445134876086614
0.5021169059236749
0.5137430958851168
0.49605407405946284
0.500314836404745
0.5126450868498074
0.5229856373321788
0.5340898679656252
0.539075272249366
0.5461712419863528
0.5646688185488526
0.5679421470632869
0.581890849476184
0.591118263185936
0.6031620039826981
0.6569191694031838
0.6738343156345685
0.7163078392710537
0.7003992406216878
0.7321613294490226
0.7011583167733381
0.7397913334056163
0.7182592357594844
0.7106027812840147
0.6431958116136913
0.654367611496633
0.5926175331578973
0.5812163134391767
0.5254352599274649
0.5397475868409283
0.48540160130943055
0.49851936953673903
0.46494311928702886
0.4992717079207679
0.4921648071651662
0.5154234871437682
0.5694527838886209
0.5635455551903834
0.560223849422741
0.5535522397449093
0.5542420220355437
0.5817270839994599
0.6007515137999345
0.5669544568397201
0.5830682687475498
0.5526938720447887
0.5611883969150397
0.5237620239118677
0.532105133924114
0.4900732662619077
0.50009501110324
0.4658842746373839
0.49677689887430815
0.4776432108548613
0.4973026371271452
0.4806677489723253
0.47241556776491916
0.49104099441566207
0.4524758035264244
0.49575702577809844
0.5125992795309509
0.5702197100597242
0.5961319959950002
0.609142347904829
0.5821965596051271
0.5996866279367932
0.5846847424260416
0.6206444156876609
0.5895013839402835
0.608774498490904
0.5825433416048964
0.6272136674155774
0.6725032000191875
0.826136058962053
1.0
1.0
1.0
1.0
1.0
0.9075099878285723
0.5900540770533885
0.6855166329886202
0.7174932822106109
0.6444856947678297
0.642974842529414
0.6215151021792059
0.6178986098337684
0.5605436823280967
0.54928307531762
0.5276373815983103
0.5425208558015246
0.5224252039208516
0.5587168932438215
0.5208069164229493
0.5452801747504662
0.5368620512269868
0.5975180270272438
0.5898518905988788
0.6090848362330237
0.5653016893433379
0.6301373635744907
0.6223722764448183
0.6868902324645314
0.6583570281733178
0.7138031510146587
0.7069344314299423
0.7512121626787145
0.748370822443903
0.7741699595855049
0.7772087149801891
0.7636171660116753
0.7615042199498891
0.7361044460869598
0.7151289789694883
0.6750955455786235
0.6923620415744277
0.6366976810581411
0.6524403829031421
0.6008412529699945
0.5935608742562237
0.5574855278686048
0.5976911899680558
0.5618880278272391
0.5967683691592403
0.5561194724299128
0.5695333461544119
0.5422142779902832
0.5954024507573451
0.5839843201183621
0.6242640270648226
0.6204254758895471
0.6560100591897021
0.6477195228595255
0.6247226680212383
0.6100588712179978
0.5832225627824126
0.5987235209179611
0.5919903362871859
0.6013949467311176
0.5765198593796927
0.5970976510213089
0.5472296325782876
0.5411729793369735
0.5181853571714982
0.5700704279122495
0.5644024499239888
0.577839952129164
0.558194276440075
0.6240155858361089
0.5894857651124508
0.6017397555753222
0.5837910622115086
0.6363955994165362
0.6863083607464745
0.8790690412799332
1.0
1.0
1.0
1.0
1.0
0.6146568745168538
0.5060505598773511
0.5929842254766601
0.5613526557475474
0.5311984457481574
0.5634767390285029
0.5255869115161093
0.5283334866795132
0.4834504257393462
0.5055558563112057
0.4864579793189178
0.5472009787648826
0.496493156090272
0.5520179108752334
0.5209489189020642
0.5666117200598075
0.5502603482264914
0.584748855034219
0.572223799580617
0.6185117899555774
0.6129021930033495
0.6636440117772011
0.6929309879911841
0.7018039963892966
0.6973223196886822
0.7051508207554381
0.7307188035358788
0.7140821753925715
0.6987142321821714
0.6667850349195
0.6925240380201821
0.6502968642345406
0.6681129091815249
0.6123504443010527
0.6250292363186702
0.5695055437658879
0.5920531138679619
0.5512425951097841
0.5931514725456141
0.5883276081816647
0.6192166798236911
0.5629689389339069
0.5738106485966139
0.5300883290003882
0.5709159015363536
0.5366108614797739
0.5658567805938077
0.5749648223349275
0.5829938692222739
0.5839856674241275
0.5789518156194164
0.5924356831848069
0.5795395208989288
0.5931396280856027
0.5514493979938175
0.5858439498520303
0.5682567958258605
0.6123267810879672
0.5967246772468215
0.5995964366375279
0.5457175682856242
0.5833445739700316
0.5473332750445976
0.5925129773665032
0.5691396715754966
0.653199618659562
0.6875219613434428
0.8572021911447083
1.0
1.0
1.0
1.0
1.0
0.91482983718074
0.6987852655972018
0.6664261862428693
0.6378785630551647
0.5432749320690462
0.5360355626034352
0.4992793075358195
0.510127297898043
0.464451647686114
0.5169455631797361
0.47994946733737276
0.5411481718494334
0.525193951064369
0.5757598315606244
0.5513129769994759
0.5600829518085183
0.5209940209694326
0.5754851097346771
0.5747109779671773
0.6107369295914797
0.6338156401770474
0.7019603419650535
0.6968121677785992
0.72197461950628
0.7401094405104358
0.7606127974797072
0.7228702146640356
0.7189919627818953
0.6902080935084947
0.6800460895930279
0.6571930150481886
0.6010590441801649
0.5883226944018808
0.5537506480391755
0.5699674476567868
0.540646242779595
0.6133741282920947
0.6057566094438865
0.6449296453275383
0.6377444264661454
0.6712613719357098
0.6179039762804758
0.639450387678673
0.5729761601520473
0.5588991955144558
0.5910879719005214
0.6674001141172191
0.8169262747736952
1.0
1.0
1.0
1.0
1.0
0.8431531291678797
0.7526670626180451
0.6893397208527192
0.6076213347193723
0.5707408805660905
0.5202024430405904
0.5040458608190372
0.4491971989386987
0.45135493169377483
0.4034016022937975
0.42837196438245534
0.38286690963562914
0.42913768011176445
0.42265255930463896
0.45013977959706886
0.4303319453928274
0.48289504716476894
0.4716956468767452
0.4964454383350616
0.4956889484670957
0.591233781705627
0.673042711425648
0.7337532386058546
0.7269676411115509
0.7436776476587953
0.7708017413197964
0.7801223663797132
0.7669480353458381
0.722496046504553
0.6811341452379802
0.6117491937487417
0.586625622780159
0.5484148328784415
0.5348196743281257
0.5250372891260511
0.5272553300763106
0.5212890422587029
0.5145495075311899
0.5165352652468633
0.542895307624399
0.4807161365607864
0.5151553688547346
0.5375642650313434
0.5731843253000799
0.5753094347763124
0.57221304868517
0.5363281532160874
0.5270198779218016
0.5111535995242239
0.48832661045443776
0.4760377002485268
0.4539265027163351
0.45933298415786705
0.4326123595658774
0.4497484605881489
0.46373474674617354
0.47549181746982117
0.45438779190958634
0.4909511822839073
0.4477791352254893
0.4793833813585988
0.4496910596845954
0.45797530675971065
0.42675028831896167
0.4944765397220051
0.517293638327045
0.5613973732250315
0.5294774736922008
0.5552510230017926
0.531842878369377
0.5482358689230141
0.5468550038882627
0.5471022362875745
0.5676948909610191
0.5796766999164337
0.5903243916490827
0.5878593281537641
0.6002952423789145
0.5805105834726916
0.5888752501006478
0.5580966643721406
0.621598540115224
0.680696276219672
0.9181340980617673
1.0
1.0
1.0
1.0
1.0
0.5322657600150751
0.5372393555595106
0.6422941030653236
0.568614282518176
0.5561624108486148
0.48789551250871827
0.5013520558501977
0.4737752551336104
0.4704770227704514
0.43938177626553065
0.409108568060155
0.41000083437391355
0.41240189344510136
0.411904403809756
0.41165292133554504
0.45174483057904424
0.4292982256307007
0.4703020386878512
0.5315459691409294
0.6283293587834222
0.6772128891638658
0.7414377948879209
0.7450716015528197
0.7811004390546257
0.7660117855267468
0.7996275911014081
0.7778418566751277
0.7908705580289764
0.7784850410460388
0.7408789519405613
0.697727613310415
0.6615429425457426
0.6176558427156298
0.6001444963481786
0.572728254102697
0.5460346839444348
0.5839555404540778
0.5659737776902263
0.5941171205724864
0.5595367203274927
0.6078354633333005
0.5913404213468497
0.6245263692266476
0.6084014556636479
0.6209029407010342
0.5918021043211201
0.6114734107882038
0.5436966264242397
0.5910929691407457
0.5467183758802701
0.586920319790732
0.5481228868645004
0.5547512332703315
0.5286411335668447
0.553719234985022
0.5665000556467171
0.5531530760219545
0.5314160478437773
0.5423903731448416
0.5359149780911799
0.5677502251153256
0.6811279911358041
1.0
1.0
1.0
1.0
1.0
0.709668621954841
0.40607197822634544
0.5911037946249207
0.5414614972805165
0.5294915306215864
0.49734360405155575
0.5253266178358457
0.4791732693149454
0.4918903548894771
0.4455303757169388
0.4719076379174954
0.4436993000185481
0.4516538663374625
0.44557917872717334
0.4432464235092405
0.45239400094864113
0.4420295864631944
0.44352877509805777
0.43389726270534756
0.4290064697992625
0.42016472790045223
0.5110145719580464
0.5620507860342696
0.6443696145511698
0.6389237651169494
0.6715845257644547
0.651102079028907
0.6548545073648437
0.6248261094894468
0.6125924640384101
0.526066716371826
0.5419103462327601
0.4868556683308477
0.4999906767375951
0.4474283979683332
0.4451795365910006
0.3970380519204748
0.39644953949777084
0.3792767027761392
0.38640099926454735
0.41549754906376746
0.4249921838658257
0.4004971186259567
0.42264811184283496
0.4791765153000195
0.5597347546850341
0.565633688015895
0.5667458459507235
0.5750399343669509
0.532832148152207
0.5238037640956954
0.48341148584382304
0.5069541558555928
0.4707344717869474
0.500547501746931
0.4673724697380049
0.48023571818367977
0.4386255486382571
0.45821403627146495
0.4232091199082405
0.4534051722578864
0.42788231209586697
0.4114601841555515
0.34050699752504787
0.360808958364191
0.42517227950254527
0.4658485602459823
0.4868449535273657
0.48319868897718654
0.49358356084613747
0.48051343447585904
0.47477804437940535
0.45946039940937594
0.5183197147625339
0.5797059210496476
0.8415798392323343
1.0
1.0
1.0
1.0
1.0
0.7345296168899752
0.5754588121965508
0.5188701515486867
0.46453927022750585
0.4157947811702292
0.42669729048096433
0.44951637544262446
0.4329844059318561
0.46111891210372075
0.4605152420813221
0.4653064101964991
0.4867204817121916
0.4950936625153365
0.4693499932001851
0.46995750679017734
0.4531961123833912
0.39436520243418577
0.41224462000125894
0.408828781356154
0.4415146968688016
0.4325839203174685
0.47786450600655933
0.45107037494501523
0.46997033668452204
0.436116233980937
0.49582505585121767
0.4842325805181601
0.5698684016927158
0.6132096772761273
0.6822676955437494
0.6427480989396349
0.6568492770899153
0.6253170451226978
0.6171235212568063
0.5893735743264532
0.5832368094158787
0.5374580212144252
0.49126119173969307
0.4606362831993084
0.446804156028641
0.423985082078972
0.3909333442830188
0.4010932570454032
0.3947268437873313
0.40928400442721957
0.3945892881925109
0.41757719260031856
0.3752219356863035
0.4057867545662524
0.3565439893320543
0.3940939725901317
0.41270580695610126
0.5385233813190557
0.5273120728297502
0.5404591576181823
0.4989780247234011
0.5106386863988909
0.4662519814620588
0.4646053279444291
0.4426190510011697
0.4322808025881935
0.40104804935371446
0.3728809057611545
0.3637512867076477
0.3431119454169319
0.35820818748096384
0.3170007375684816
0.3492334842734411
0.3575406345283104
0.3912284687659562
0.3570741368694927
0.3692228093602673
0.350612191775732
0.4450695498258804
0.46732783463248745
0.47310454156124593
0.4153337225996975
0.44101634761664255
0.3948250846444214
0.43348347534471376
0.4018597796615257
0.4065748143816327
0.3756556295287151
0.37394969478240697
0.34860620144814797
0.3557901300204646
0.3648581296772703
0.38424231168975276
0.4166077847050908
0.4008691416324915
0.4196748333170718
0.3880949424090835
0.4147187312188091
0.40192525201774043
0.5283023384786375
0.6508188064484927
0.8514189816300348
1.0
1.0
1.0
1.0
1.0
0.6114751046967275
0.4929721351167699
0.5382525457245906
0.4608839668165373
0.43029220885182884
0.4097489234601679
0.40204498810494715
0.39193144730355184
0.38990452598787684
0.3702837153778016
0.39863777505189635
0.40480767126205547
0.4425395893951449
0.49580499803768985
0.5127776242713481
0.523819534143015
0.5007145914275632
0.5164742395393629
0.4814051928230373
0.5337663417911025
0.5110030725737332
0.5488541487449005
0.5230783079008747
0.5836242842286665
0.5489273282126305
0.5847356735628013
0.5794305797860128
0.6291005321359135
0.6120358612882627
0.6524669163932665
0.599396634069308
0.6019527607304604
0.5873610335437247
0.5871545431148923
0.5729148100440865
0.57570102043276
0.538066951415644
0.5031548075696006
0.5224018615008423
0.5112553791130577
0.511048071705156
0.4705105098179068
0.47432203216710683
0.43622482233777166
0.4656516087594597
0.43592957753173467
0.46515937239542404
0.46018885058315007
0.4992511222732632
0.460688624792548
0.49316305098038804
0.4785926923207925
0.4920545619667694
0.47907557047965704
0.5073997064269187
0.5022683003179509
0.5077995657718899
0.4612052059778439
0.44786504291434187
0.4363296719359798
0.419353646250325
0.4036332931851079
0.3923897382591405
0.39702395513750266
0.38375492923113286
0.38061692825708804
0.3655820742909426
0.3941921873820017
0.400765327551842
0.41487547666234015
0.400188226687602
0.4190560375597392
0.4201706970117701
0.48902298575714837
0.46287003851688624
0.48375829425902356
0.4626376617666759
0.488056436636181
0.45167305652031964
0.4668633457823663
0.4283552594628972
0.4567056780945441
0.4228066651784637
0.44068726347155324
0.4080734678580904
0.4146364514877979
0.420045245009191
0.4317144930702077
0.43591365495582873
0.3910629973373198
0.41992056454941373
0.4246670677823176
0.44165932562241245
0.39946742712997063
0.44211239805369973
0.4049843305471848
0.4566836842721143
0.4525530431999458
0.48003458714050495
0.4426222943954169
0.46292414593924347
0.4456591271478281
0.4688348072668311
0.47432399177742035
0.49013096519811084
0.4693400262229723
0.47056018055115334
0.4661119752370325
0.4720031638104697
0.4541385355880081
0.4724523410601867
0.49397267029626024
0.4847292828220051
0.4817348612855431
0.4622452080733028
0.478540666547563
0.4879115679341909
0.515790197480982
0.5176182758055543
0.5955334116188422
0.6518016266574856
0.9697825046424532
1.0
1.0
1.0
1.0
1.0
0.573519850510819
0.3949277170495581
0.540893768293989
0.5430373833728769
0.49943687933767417
0.46498270851420215
0.4547920406402901
0.45200084411578734
0.4295483045796452
0.434757391844187
0.44092464748454746
0.4600574727265653
0.46492308872223137
0.49506480338290276
0.4872452034047455
0.5175746302971447
0.5007216091676379
0.5214884939224658
0.5032424900186159
0.5004098795329032
0.47383307165735583
0.4961589600301437
0.488896055736442
0.5677105904237395
0.5826151521511104
0.6139988465077351
0.6072972142342897
0.6364125891415846
0.6136718731559259
0.6517707909132217
0.6741331960351721
0.6851161052027424
0.679951087358651
0.6843019444723686
0.6491322854549264
0.6259480136623672
0.611460992264582
0.5724164168928523
0.5778965263026834
0.5565515799042411
0.5573418527998244
0.5516915762008158
0.5796826028787943
0.49743403693441923
0.5008926738876782
0.4968399664725015
0.5316466099810395
0.5069773938868483
0.5177778802043195
0.49982645248424235
0.544792192820055
0.5220726554536
0.5560465501606823
0.5171962813847103
0.5363671900850138
0.4922570802509991
0.5176638060970833
0.49149815726227936
0.4977016240995054
0.49418008142317477
0.5000836690762446
0.5028112545629451
0.46832884199642555
0.4598464865369885
0.43726846469659486
0.4781966432106367
0.39886135675370776
0.413460119566479
0.41960448115686433
0.5105531962053587
0.5224998535867502
0.5489830568373815
0.5355130463635333
0.5388461360976613
0.5121388171389221
0.5203702450839122
0.5039701869248988
0.5098736271358686
0.5177827700812233
0.5334981107674232
0.535215533055334
0.5477436681225148
0.5850906363703702
0.6407068624345864
0.8858508785116836
1.0
1.0
1.0
1.0
1.0
0.709912658267003
0.5359382744532087
0.5188664091406079
0.5217022772158828
0.5028182158117838
0.46021434959638763
0.4770576633236849
0.42987899251246375
0.4332401827021437
0.4109678592547562
0.42067228503681325
0.4048698985837652
0.426323023270111
0.3928545084730739
0.46663838019807996
0.4704670534397648
0.499188909965189
0.49734686863550986
0.5151339266074111
0.497180389566957
0.5046855601583035
0.5243342605938343
0.5155379890487557
0.5305626189332371
0.508540615161472
0.5658195343550811
0.6206831515973373
0.6741144852341293
0.6543284183061358
0.6448920439435879
0.6050055958855844
0.6016743337479233
0.5552765430818176
0.5599220529291222
0.5159839786224241
0.5457800908100398
0.49787391482570964
0.491525707552997
0.4572096281658803
0.4605373124337023
0.42452443106278126
0.43992132266310024
0.42695385424663534
0.4355664746550696
0.41916306781541274
0.40465070962336036
0.3779386891739539
0.325459559955975
0.35266589020549616
0.41264350659890364
0.45683724454983465
0.4289878616083828
0.47206206467725986
0.4749082154012566
0.4844085217815145
0.4341811142531478
0.4421219358337317
0.40147780922296167
0.41625889589682197
0.39287013776914176
0.41008569463165123
0.36318901598747244
0.37265402705528006
0.3451712836054544
0.3620417585719449
0.3216241192255193
0.3525534080124445
0.33638627806276306
0.34003983872999627
0.344140294703693
0.3488473117820826
0.4150688586089009
0.48599856615157055
0.48878360958820943
0.4755778350069798
0.4972914614098536
0.5042207445432226
0.5046897686075931
0.49848763585136313
0.5195746610794425
0.543837178330824
0.6145270694388979
0.7826549426220183
1.0
1.0
1.0
1.0
1.0
0.6238817861075894
0.5021440348211976
0.48622943196173124
0.5031678173029924
0.45601192053156403
0.44113850906454566
0.40575076965011264
0.4152319890678042
0.4527120214143685
0.476048016074086
0.47179716567107005
0.4681366736405554
0.4718960338141366
0.45632323387348006
0.4667070388240857
0.45860180370336756
0.4735421272717475
0.45911949263636453
0.4948868854230438
0.4932674336472414
0.5190748980445764
0.5201883429055714
0.5784184706848785
0.5695377377424451
0.5929516104633265
0.5984648080771572
0.6383087819995321
0.646969102216777
0.6583849680535663
0.6401489051359475
0.656209407825586
0.6573053395787888
0.6309669856752244
0.5988060694694989
0.5549716268731892
0.5505167507423426
0.5235506551826428
0.5195283561839573
0.5153640343918646
0.5281080990941743
0.4953425560338018
0.5110676084536947
0.4690519185809524
0.47895806087018766
0.4364706021374879
0.4713160806645836
0.45869509787221024
0.47117422251299584
0.46027529185039917
0.4783370346126944
0.46253777556573433
0.5198803933316664
0.48466596991469457
0.49339729689324363
0.4753576228636304
0.48479073010052537
0.49900039793145023
0.4887600134382783
0.4777910051273526
0.43614305928265845
0.4084107423171936
0.3637640668513726
0.36417700558286825
0.32351229527987835
0.3597897757338441
0.3848949076003768
0.47506938813011235
0.4713951836691909
0.49216407915730676
0.4741170353622516
0.5372663223173009
0.5365109247711006
0.561610876527833
0.5423444294820178
0.5811119203557998
0.5592063284440415
0.5625913527077065
0.5121973448746312
0.5456357650638133
0.5310506186750674
0.5882506350989145
0.7124380884301951
1.0
1.0
1.0
1.0
1.0
0.41435134174697535
0.3781287874986671
0.5247722717893333
0.46555172265240896
0.4809909475377781
0.44452088354255637
0.473731460734138
0.44289631799324686
0.48040747085337554
0.42566499917051803
0.45993436480778377
0.4264684926710651
0.483536122414231
0.4554174999039565
0.4667727275047759
0.44657023055889955
0.46632984715000364
0.46594698372990023
0.4715575920157849
0.46984327462126496
0.48819641773496497
0.5196398761743237
0.5628663396528226
0.6284678067790841
0.7095417932555224
0.7593873085540904
0.7681776100315594
0.780144670027425
0.741488976200652
0.7219676882738375
0.6692465888530994
0.6673221726038658
0.6000428450709936
0.5922022760832187
0.5438219797997788
0.5476611584733159
0.48252534447753703
0.5017800088652655
0.43858556852186814
0.4300066928830549
0.43098148520677826
0.4574472094439683
0.44878032542927704
0.4996672771565665
0.5476987711249006
0.5569050625143399
0.5477122799926382
0.5640772207329107
0.5676902869773783
0.5492973260542594
0.5312182186538452
0.5137319585209644
0.5271774431454752
0.48948061733829284
0.4971996022091247
0.4491727333803908
0.46515447004053667
0.41770847456396665
0.43731945544976564
0.38218673282075083
0.4171826526335002
0.4481331180002635
0.5462102177553232
0.5109090900609905
0.5486519740446866
0.544614434760366
0.5341231083235155
0.5107427030825549
0.5160013445932804
0.5065028040486951
0.508724641623319
0.4846289314016158
0.460224528549933
0.45685138170758466
0.4338113053192534
0.4407699938120473
0.4236630810487526
0.4624102422505104
0.4588728589012333
0.4776824961068137
0.4167578135627287
0.45533334441400475
0.42918837783661845
0.43750866498292823
0.48129666322422926
0.5834334475123747
0.5723119302532367
0.6827817634646705
0.7765556265275861
1.0
1.0
1.0
1.0
1.0
0.7959157469848124
0.5432774971275762
0.5475532982434075
0.5674102235610802
0.54227499335251
0.507751710496986
0.47290805098046607
0.4553644628406765
0.4448417362166839
0.4125085861202201
0.4026803244789077
0.38931533692303855
0.451054350926223
0.5099427169172327
0.5571002998659405
0.5253643094968933
0.5512102045265502
0.5372624015004924
0.5574982917878499
0.5687010032630896
0.5981207951680922
0.5818133681337241
0.633201703065712
0.6747606535349651
0.6979232180906747
0.7227493459855566
0.7217451974744616
0.7258803029967759
0.6746310676403257
0.659852003593469
0.595421041229482
0.5727816580913621
0.5027461856113891
0.5170309027497506
0.5056125419431305
0.5337356383181243
0.4992998298013598
0.5008839361214642
0.459137942717111
0.46690377203176425
0.4526458140390188
0.5003543997148793
0.48298494370072226
0.5029730301934034
0.4898864630898281
0.5379485469449026
0.5080832719912997
0.4978486917850863
0.4833536370378388
0.487763677311375
0.4581515637482781
0.4310972474309457
0.43458494142375576
0.4554418159048822
0.4638815613483006
0.44824259543713973
0.4633657710681365
0.45184803748058666
0.47918197702978504
0.46119368021291196
0.4853081347731673
0.45891660557944525
0.5098178737930212
0.47713532879328857
0.4949000642912133
0.4638970429574846
0.48318460654939316
0.45343276106358826
0.47928916216430234
0.42027171664740753
0.43119864009226044
0.38052278455360444
0.3595758930663718
0.37129232540634416
0.44541140207154345
0.4081607692494306
0.4141655162594889
0.4181256073085307
0.4495295121013478
0.4473296076150195
0.46175372373430806
0.47659803091701713
0.5073792848723071
0.6156616354812907
0.8558057527934546
1.0
1.0
1.0
1.0
0.7994107329720166
0.5323339616483336
0.5589385722230223
0.5006390031079329
0.5065379641534851
0.4633110031553186
0.42101850713848316
0.40823884166022956
0.4303573077830329
0.41170662186767554
0.42237447037307074
0.4202426756043457
0.4442652579805043
0.42811588980398413
0.4341329776917876
0.41037416421965317
0.4507935530955584
0.5189671575264068
0.5423696861753876
0.5759922407824996
0.5312693087650414
0.6100771071940327
0.6401900650523549
0.7070798556821742
0.7083949167064593
0.7716474398012082
0.7326804451904227
0.7097581553518533
0.6533685635904045
0.6342588376669791
0.5643441438278403
0.5339431160150946
0.4799936816747555
0.47195967192910954
0.4557415041397038
0.476876765616027
0.48241866953253576
0.4858245345460773
0.5008167808543176
0.48765375985346304
0.4818042971765658
0.46914686645917153
0.49612554748640986
0.5011965893296647
0.5477800429678183
0.533498890937705
0.5278527035895179
0.49231160200858837
0.5025562941278806
0.44781007795715855
0.4669559059680027
0.4301876806898843
0.4847217882061459
0.520813633431553
0.683796277308805
0.9233568540188664
1.0
1.0
1.0
1.0
1.0
0.6319757187967562
0.4448062150328297
0.5199002585755987
0.5134555585713519
0.46301651080562667
0.41591041066841505
0.41506158661620873
0.3733403024211505
0.3590753136348376
0.3325553915369926
0.3522972368167855
0.3629273070091405
0.38746679510535387
0.3918420142658719
0.407466091471629
0.3955869637261111
0.4339564070435292
0.4540960986440973
0.4886142196485424
0.5001455407743506
0.5762210124332579
0.60432283625252
0.6180942228371806
0.6068860563414147
0.6359553488372354
0.6713287044870374
0.6835163783560038
0.6922175543397503
0.6707763676622431
0.6381954629718967
0.5832908150335756
0.5331416949830119
0.4756090878410092
0.42702792759826486
0.3805803627983683
0.3962025504512312
0.36916893483772056
0.40636563436423306
0.3957121365337808
0.4342491300186692
0.4125786074112144
0.4135559104598897
0.37741673381359925
0.39763243573458196
0.37411660219151294
0.40211574068909367
0.3848680708125703
0.3973897129497117
0.386177655025361
0.39213336561540557
0.3734901951224029
0.35924309507333146
0.3576649531858509
0.3873137029493694
0.40757729991272196
0.40413103938181943
0.43711799990446976
0.43461931736657833
0.4527918650384997
0.4628714300756479
0.4775868009120348
0.4337101643523165
0.4342187441441405
0.38796037899670843
0.40809024051028897
0.3847386386087256
0.4041934505180961
0.3823926204615403
0.39211685077412517
0.3781089243601076
0.3845432100840368
0.35621124818792554
0.36802251457485796
0.36373409373382337
0.3826003312317569
0.3592035564620428
0.3593826677296731
0.39017672692838323
0.4259693910349305
0.4433300151134392
0.4803607227148035
0.47681456685593443
0.42011465812800297
0.4157594630851782
0.45450958338829495
0.47000196789029614
0.4221044576480969
0.4142416590096295
0.3856662383873786
0.3976160291909675
0.37094055551116634
0.3811220654288001
0.3634129880187995
0.3958415971799063
0.37521384387742235
0.39550476927073996
0.3607423503205502
0.4074797236586389
0.4128616227078494
0.4564462112561368
0.4372138402353197
0.4677635182703369
0.4838687749856801
0.5052165147515372
0.5449224419083823
0.6266457429028617
0.7066595667670276
0.9074716882719194
1.0
1.0
1.0
1.0
1.0
0.8734851927340695
0.4810911167270415
0.4603803852306011
0.46924534351755065
0.38312473158576127
0.41209188052054957
0.40092442666358574
0.4420997090744755
0.4037927120623781
0.4359989841152334
0.4171300655558524
0.4574439035732459
0.47408428517034507
0.5110593652144557
0.49035218757699967
0.4736532884119825
0.4500323863142164
0.438952209327505
0.41453769280361474
0.42180511447215235
0.4474656995119144
0.4295719431429788
0.4500137284480175
0.4424786679080187
0.4812905598622141
0.4920806020878875
0.5944914336271547
0.6277809810791736
0.6891523114796356
0.6832041521202254
0.7604564925443265
0.7461969021083616
0.7870191724310713
0.7300382251600246
0.6924212706554711
0.5946130945782846
0.5445567628057948
0.504638285155894
0.47890681492488635
0.45119940445040624
0.4533838163604327
0.47050501572630965
0.4611607358764247
0.4786444623914436
0.45392254809929
0.48766148168554324
0.5153035627524829
0.5893510949180454
0.5627724456420699
0.5876409059547167
0.5634912605056288
0.5707257853639193
0.5356376978015026
0.5177314160001133
0.46246867471848113
0.44519006996527055
0.40009232410469464
0.3822937035810962
0.35694121154820546
0.34817363842914323
0.3504356444108545
0.37111970984807596
0.36367725259801514
0.373733535394984
0.45804414946100475
0.5424810257144602
0.7880315847278404
1.0
1.0
1.0
1.0
1.0
0.8642222987123198
0.7056540991265203
0.616545706092572
0.5444045421857302
0.4841448862913088
0.4267693748191605
0.39893849578192964
0.3543183082623977
0.3489926226143565
0.29709360136342505
0.3158531160842866
0.30233522714294975
0.32431754771637566
0.31939165827493354
0.36582738372963997
0.37099646151999943
0.41026907864700507
0.46518698111349643
0.5210188397984756
0.5430087540085651
0.537768832684345
0.5760965373759832
0.5794073522006777
0.6089805884937963
0.6451538626518849
0.6506142721130754
0.6151977280246449
0.6464319989032511
0.583547794739055
0.5802715216855474
0.5087802535132291
0.5061672857763032
0.4484282738029945
0.4597525538049731
0.4196571232003511
0.4741101879992848
0.4525900760356724
0.5108049417349172
0.492888453078844
0.5015484254399954
0.48661470268849616
0.49280631202365976
0.4666618304489646
0.4618665672300414
0.4428139659724673
0.4184599555034486
0.38848319111140156
0.38260493441791377
0.4336725924256649
0.45419239892575025
0.47886621079606506
0.4912241267644732
0.5300221218251685
0.5111964047270531
0.49428227912812017
0.44797956378379683
0.4850388906745107
0.4621645121870458
0.4788784102281186
0.45518179776432266
0.4465673680071949
0.405669709718887
0.4224885812113266
0.3761415515543186
0.35786286837612397
0.30941691201771465
0.30165376419058243
0.2741123265917004
0.2723351648900767
0.2649979857603985
0.3087946208595866
0.39317933588719195
0.41843621158031563
0.4890756359475665
0.49942137901316574
0.5673197172027902
0.5792553630343376
0.6535881988979436
0.6766995152580886
0.8485258993772582
1.0
1.0
1.0
1.0
1.0
0.7386003340086915
0.41315672705185635
0.44364583764198756
0.42445743668151825
0.38237719760061684
0.39120959596351346
0.4116726466441885
0.42082717886025395
0.4228217874852632
0.46542768863537465
0.48301239001565544
0.5119341124194854
0.5023212736506198
0.5165671608744287
0.5190493429365569
0.5419524372233082
0.4868514444443706
0.4823121605431093
0.4682390842176714
0.5011373985914643
0.4780260849790589
0.5249800184862277
0.5041193038867459
0.5422598784176718
0.5253382734963441
0.5955443337806642
0.5813699966635096
0.6179263873532161
0.6613201561900641
0.7325859967535899
0.7540772019111136
0.7434622177851125
0.7288884451634516
0.6749250702280751
0.6279533825856635
0.5851413558766158
0.5786582902995869
0.5573905180779085
0.5622511983425792
0.5161827595256228
0.5170697369269626
0.48557917935272654
0.5233107684222453
0.4917486631430436
0.5324495584483533
0.5074146982081301
0.5338673791601412
0.5098139413184277
0.5314281006182723
0.48509316608420594
0.4928808970119222
0.4952107167547373
0.5564648168494493
0.5490613886339376
0.5757699331023806
0.5642238434003479
0.5613940250093215
0.5353592475126756
0.5265570283157978
0.5425590082469917
0.5202533944786191
0.5284076137404662
0.5398389410639428
0.6375906481155724
0.7474792168889459
1.0
1.0
1.0
1.0
1.0
0.721292670946162
0.453326393917311
0.5137746453243363
0.5335276523640672
0.40507271205649
0.3925523313015569
0.39395957052897496
0.43575239089790624
0.4104807995127243
0.42889361020137534
0.42905691107422844
0.4264202406442276
0.4152038002272228
0.431547285889176
0.44829079721194
0.4726109502623449
0.49788727814882855
0.5007780085641648
0.5338480974826811
0.5325755714672277
0.5724411342135147
0.5643791209638559
0.6447507337954304
0.612061955366598
0.6437389511712683
0.6172629578213428
0.6679153188122877
0.6340239950583195
0.6627295011360259
0.6414303901302387
0.6937170997538419
0.6567877700864767
0.6416512287104511
0.6058211416861934
0.6078217026490416
0.5552612478637486
0.5388558735824517
0.5104361145166469
0.5008607858395246
0.5128043076737312
0.4860333762901683
0.5434873012798781
0.5578984907342365
0.5422286946608044
0.5052226817436085
0.5268622994854879
0.48914721360397023
0.518560406832654
0.4820745133322212
0.4933237239455691
0.41479865216181927
0.4583801054811449
0.5059698615219266
0.5808151156003301
0.5405124025915466
0.5752912408640738
0.5322923492598736
0.5603154819068892
0.5085124644084651
0.5465802158667821
0.5227385195189312
0.53483211759973
0.5424936012391202
0.529986761223143
0.5043568007020863
0.49533347109930964
0.48302392909778397
0.46289943087638485
0.4782397314676312
0.4452428631780559
0.4784877574966445
0.4447143627816648
0.46756265995272017
0.4396345187750911
0.5126953284179387
0.5788276383794861
0.8844520066260817
1.0
1.0
1.0
1.0
1.0
0.9637223196493322
0.6790555910261555
0.6724355575296339
0.6245310541932676
0.5290724441598318
0.47696011494832663
0.46107871107837795
0.4651059876872144
0.42321782695173066
0.4045655833642596
0.36601467012920075
0.3896000741542589
0.36053140157929475
0.3597531579359712
0.35263663516425825
0.3925590270329366
0.3901059411821187
0.5209920185472229
0.6122699285540952
0.6681636714941337
0.6273840140639534
0.6496666401589578
0.6165948237675241
0.6405660800006965
0.6215835886859142
0.654559640313096
0.6479293506147814
0.668624845325026
0.6749894313160294
0.6777046900610044
0.6482667388893842
0.6054852775424019
0.5646642153744036
0.522234087448869
0.4933078546913735
0.4998246746101477
0.5054651190466238
0.4688930556840612
0.49961596889229637
0.5965476672439041
0.685088510945961
0.620814332712148
0.6287303942342441
0.58823853335988
0.6069057406078289
0.571409645113657
0.5892671476469878
0.5391219083344875
0.5465284495235221
0.5101397866313604
0.5274555451499937
0.4931368596088177
0.47677729894319604
0.45894582732642536
0.4555601676912827
0.43620570973520356
0.4520288447122566
0.44430408375506625
0.4358756981926765
0.4527679850321736
0.4464411278696311
0.560048316040729
0.573769409677561
0.5764260779056769
0.542699653727067
0.5490060450838995
0.5204807702610953
0.5171248330869845
0.4743816401333666
0.5139679699787711
0.4814670612456065
0.5027245733198517
0.4800675431753395
0.49651948514956956
0.4826938013390083
0.6073761892485129
0.6643535086245531
0.9648290695943358
1.0
1.0
1.0
1.0
1.0
0.7179138889395815
0.6436033024701875
0.6525334971294615
0.597356013614244
0.5091429656428925
0.5106191286186016
0.44559298592195873
0.43827707480174977
0.3965532299459441
0.4106332820803832
0.38422042697953873
0.44378394017897743
0.46080213565169725
0.5205783641801245
0.47292927458673084
0.5134320814836302
0.4804464252236927
0.5084518453360942
0.4809717818157576
0.5036645601720979
0.4817531898485551
0.499318579609474
0.5048237055839009
0.5896414472591132
0.6450124388113572
0.6690024158240875
0.7123653039993195
0.7056594216002827
0.7228257509559405
0.7226243880097732
0.7148760221038418
0.6446787126934154
0.6476660071221849
0.5738403131108976
0.5752840159153119
0.5353077609535161
0.5271421798553914
0.47485927395875366
0.48620825618504515
0.45195325221611216
0.4398634881242378
0.3902036250983049
0.40092462172734233
0.37642968924262993
0.40111100854789755
0.39629314182000874
0.4876855584500361
0.5823870441585794
0.609446062319061
0.616919373425095
0.6095614588598229
0.6021986153609021
0.568738034216369
0.5511231596050283
0.5206634239844768
0.530259472536957
0.4716583836047604
0.47881574046293435
0.45452760952488164
0.4574980001656
0.417019600737133
0.4297053273168654
0.3886574921267131
0.41813799376990335
0.3776071070507781
0.4102164190729905
0.4087573618056963
0.5123410769413608
0.5923659918232442
0.6122150630885924
0.5687760250312863
0.5766024741180089
0.5562910064550033
0.5464023842634602
0.5132724133443413
0.5076188962177637
0.48295648322590046
0.4658679521546401
0.4653135244769013
0.44084670596625886
0.4492374028039038
0.43174977367548795
0.4592748077553783
0.4238547052119349
0.4404540360904474
0.44347365045294307
0.5067032743866148
0.5230158895276051
0.5949995431962894
0.613180195245666
0.6282408403161004
0.5674124615322533
0.5998730776904307
0.5603252080933914
0.6369789066872007
0.7102950454378298
0.9087931727559599
1.0
1.0
1.0
1.0
1.0
0.42662599975222804
0.36081983129441425
0.4825617751160216
0.4986535872918833
0.4896219472494806
0.48481294934397373
0.48967517262288435
0.518837017398846
0.5151842647298276
0.5748677282251471
0.5431189733624101
0.5560116142199623
0.5082027171538088
0.5368841722856481
0.5095305328718736
0.5155882023284568
0.5123314097303832
0.5289903145090421
0.5301106937740123
0.5382477279490843
0.5507172638818524
0.5627767249234314
0.5793381578351819
0.6512808753541536
0.7008501254340804
0.7360335292186189
0.7445615158019195
0.7815191901058425
0.8663948712292765
0.8126028964393835
0.8341070642821871
0.7605436621065379
0.7248859904607223
0.6397839363868882
0.6140694238821072
0.5417957929508608
0.5312747463610931
0.4656987257067492
0.48125998515910906
0.4392015252537875
0.5083806903702047
0.4958189955969778
0.5354787860391808
0.550145741862617
0.6010090914229158
0.5827878935242736
0.5934931237930182
0.596223515048519
0.5888606191525854
0.5558780217778982
0.5607309085612763
0.5809211561853815
0.528326112725966
0.5221589482603509
0.4875620745288913
0.4698086428719256
0.40467754486316865
0.4275557246268294
0.43932835205532095
0.48838421314964514
0.4857824375071346
0.5399774876077723
0.5011321655082324
0.5279507852736174
0.5031955836002684
0.5303845315785533
0.4847789581132596
0.5105227519142489
0.47412978426977404
0.48333464317358316
0.47251106295256984
0.5140027753223482
0.49545576109993095
0.49044759692880974
0.49772255939827376
0.4800620200816998
0.4620995160080469
0.4630040346945015
0.46691647991755564
0.47194916208945703
0.5561896479189975
0.5399562333652043
0.5377597537194706
0.5049938992008747
0.5277192483594487
0.4724942537259971
0.5048739529912127
0.4900354216466388
0.5456773559367942
0.5104932507117479
0.5191095267486177
0.47459439088916894
0.47436456301806756
0.44841355559423357
0.4685654211303518
0.43364026772646513
0.4854588133661209
0.4787245955910091
0.5432761064268273
0.6099151109795045
0.6297772699041067
0.6082751836225189
0.5911734409101993
0.6183475468293433
0.6298257751852758
0.6453187431357934
0.690323442622222
0.7963886243477843
1.0
1.0
1.0
1.0
1.0
1.0
0.5882314497388749
0.5430675632566453
0.6680555928538678
0.5986172732809212
0.5395728722681566
0.5452813964480907
0.5344212218128467
0.5513357847494913
0.574224192036166
0.5969780543838878
0.608997234673563
0.5824731379785253
0.5840606313198236
0.54269464797552
0.5635852260881872
0.5498654740618278
0.5754541628491535
0.5600563951954017
0.5987998713017227
0.5594683249212684
0.5971465597226335
0.5974438152777013
0.6759933019505086
0.6950591648684182
0.7506563556772627
0.7307667181138601
0.7648840710714974
0.7310263690314532
0.774434046885129
0.7507068251950728
0.7592325730142283
0.7099719054336632
0.649637471051372
0.5947172566980765
0.5589873216124431
0.5506010532734705
0.5008010167734008
0.5152412948846385
0.5216142246060171
0.5672764365070098
0.5736061126792646
0.6337633118304506
0.628367158394229
0.6588673152156513
0.6489706359682501
0.6526744894117422
0.5673696963342338
0.5807612793025436
0.5438704960353611
0.558894958257801
0.5235360043474904
0.5526291117625826
0.5109537968892285
0.5101670461214138
0.46292356483359953
0.4848330112484948
0.4340318961162929
0.4696709197217547
0.471772295831529
0.5584660547123329
0.5831927138748508
0.5907068133281507
0.5760778878792389
0.6095081355968444
0.5758130092678211
0.5231787269068515
0.5111550652905728
0.4988775176974863
0.5161197836737768
0.48282472569329393
0.48825061442491524
0.43897554845694087
0.46852462823778945
0.44142359985080193
0.452241409373544
0.44534948566110516
0.4929507872475664
0.4778949002007626
0.5333183340217501
0.5917740901847813
0.7478118148277181
1.0
1.0
1.0
1.0
1.0
1.0
0.7676588507139139
0.6793492126734106
0.6541988575760724
0.5569864674365184
0.5056066493573079
0.463780308870108
0.46510965835450024
0.4167565248336798
0.425284845351986
0.36935949844742505
0.41847231379030597
0.4130712793408148
0.45117030512989353
0.44039319235034774
0.5494313086439008
0.5736007956241993
0.6154955232371857
0.6073794243808366
0.623020824404954
0.609254059422362
0.6530616370342553
0.6616346349970672
0.64006361931553
0.6549332623834602
0.6573237868108922
0.663133088300666
0.6325894649151865
0.6667308023048681
0.6277839423579301
0.6735309854860223
0.6584530160569637
0.6859022354921419
0.6477799046574009
0.6457591351279358
0.6217485815125744
0.648496996225339
0.5913548091494629
0.6044539959856171
0.5659353481248602
0.5854293379502713
0.5090176917644456
0.5184992512083819
0.47959056149053714
0.4741598957557015
0.44490197066089116
0.4451013674991825
0.4187110689375294
0.39685093913410285
0.4010113256174945
0.413474621396167
0.4314324352636182
0.4477578639755303
0.4776339582115484
0.5027092987717576
0.5166588540210441
0.5539591976544018
0.5793035335558382
0.5409265050375326
0.5803762387205784
0.523286156771174
0.5571314406936977
0.5144741590379243
0.5127300511644516
0.4433506517572464
0.4822449470240705
0.4583744378835499
0.5053096485914857
0.5019279349928614
0.561775136502277
0.6024308867874238
0.722524779271092
1.0
1.0
1.0
1.0
1.0
0.8028202089890655
0.5469339198004061
0.6007550612649214
0.5791201452542356
0.48906247472182407
0.46306137648617707
0.4036496259235366
0.41617526027902424
0.38763538752119153
0.43939636087333367
0.42376308898922854
0.49360214343887343
0.5034956101003849
0.5144924242759797
0.4918099292888295
0.5204254361728589
0.49465957203907307
0.5121777353897156
0.5024973104537387
0.5241229811463709
0.5137385423432843
0.5863993581465585
0.6513300901770506
0.6913031378063397
0.7500929492198347
0.7592938839927162
0.8127034614509799
0.8177770159195703
0.8003505441363956
0.7381270148080243
0.7063738062591461
0.612120520346747
0.5737982810881064
0.49889839444961037
0.49696328672140966
0.4375573344594802
0.4458502082894669
0.38562567840959616
0.3949164491076743
0.36410434658282503
0.36896407035498446
0.33602946444860826
0.41251111066078855
0.4442336181410447
0.5019094970705111
0.49915033363759187
0.5368878347955511
0.5283584627917135
0.5239487987754899
0.5368215492876841
0.5496311811186021
0.5325609592829899
0.5080501758933571
0.5247989335226648
0.4767386337470533
0.4917657955654648
0.4313574997363846
0.40973400371903407
0.3624259156280717
0.4025332167032792
0.3717522553379583
0.4076427956062121
0.41807009911012766
0.4619308932577744
0.43822442771385167
0.461257435082622
0.4236494274703575
0.4549029910543826
0.446377695863331
0.4813105342743825
0.4789759933784462
0.5004405059010484
0.5133105230127015
0.5038260877229024
0.49935604111610576
0.4646788147798273
0.4304539437275608
0.3877535644107697
0.39279792185007745
0.37725148727460356
0.39151015475944895
0.37803103012704103
0.3959655498049421
0.3487868633503619
0.3813574305110793
0.3772921349803253
0.40968055463101705
0.37532420572407627
0.43054079414049884
0.39670168203062933
0.4519661572501402
0.42811825779599133
0.4594691558126206
0.46217568421132144
0.4898930076401727
0.4677184725462489
0.47703554899750433
0.46632081202823966
0.47185350205623805
0.4807844669632388
0.4635513374821965
0.4640169147004528
0.44263092746217164
0.46134978515464364
0.45951295011699056
0.5146914496404311
0.5493424422615134
0.6738354229801438
0.83831450916866
1.0
1.0
1.0
1.0
1.0
0.8264746872528311
0.6072800433668731
0.6693697791285093
0.6569338126742527
0.5385354638520422
0.48997079375424846
0.45646144294427715
0.4473181551893711
0.39991551575368234
0.4007160446905068
0.3910522985849193
0.43698203092773624
0.48688473675424
0.4751181392690965
0.49511561313059893
0.5218077423405585
0.5694773277469725
0.5579210998032734
0.6131530697190586
0.5855668044167912
0.6146979550024637
0.60291148926371
0.635923296528045
0.5779504239972001
0.6341441257921554
0.6444385178233595
0.674616067646568
0.64785560715207
0.6882523777720131
0.6788128343096049
0.6973932023027654
0.6884057582449247
0.6973019829485434
0.7166587360141723
0.7029590379767077
0.7085709744615704
0.6598916952406626
0.6533661634823906
0.6179855235593118
0.6081997904544549
0.5654201979801449
0.605013525062375
0.5591189067414433
0.5846055340985106
0.5497672786967732
0.5748611601079423
0.5603448721688251
0.593348943395086
0.5733262775377095
0.584493538161951
0.5645319046030014
0.5603797601632757
0.5289743966802299
0.5697526935932009
0.528961463505651
0.5337481933800304
0.5367658692015983
0.6088444757048096
0.599299017988207
0.5818874529424694
0.5707479897015982
0.5700928370044095
0.5717166002444534
0.5323597074176397
0.5408567992769282
0.5208970512946606
0.5227039857253053
0.48557062625419445
0.5408345935488746
0.5021284125755641
0.5274841397853375
0.4923636946833331
0.5227908518785724
0.4930048564764874
0.5246917501592101
0.48572089326195905
0.481164531183662
0.4665807601151988
0.5021909967327236
0.5338372061695889
0.5504470254596783
0.541061671141857
0.5483452923068726
0.5481246601574902
0.579540681629305
0.6362458020373749
0.7221160813426788
1.0
1.0
1.0
1.0
1.0
1.0
0.7069506465944084
0.5591035995334562
0.5990214262204248
0.5219596692866166
0.5030931420977649
0.45890285758843186
0.49825777794056886
0.470611188080011
0.5014493044176987
0.46663481751716895
0.5005269038963577
0.47623978663984295
0.5020923689842381
0.5206924397735159
0.5335059633392205
0.5217767600430382
0.5106425348413878
0.540474000636845
0.5225006418602881
0.5574048288174892
0.5582468527784907
0.6180622039114291
0.596221268726062
0.6652409352558665
0.6475310540799953
0.6984874717205521
0.6968578310277586
0.7052953249413655
0.6690396399354488
0.7060135895052732
0.6897072517228965
0.7053745860597707
0.6466363426211682
0.6544152335899146
0.6117257294099173
0.607172390816332
0.5703790445900009
0.5690778771154456
0.5585110801710165
0.5607933084125158
0.5680533245978667
0.5674772367477835
0.5628991783748474
0.5441619384749743
0.5489705521542907
0.5247005567206479
0.5356811223845834
0.5172977406513513
0.5102374200559712
0.4686545551437368
0.4996790611290126
0.48015932600996597
0.5477609923362603
0.5446316841621269
0.5780330946664685
0.5323225366411338
0.5769257997084045
0.5333749018377524
0.5662430592820623
0.5359033884047915
0.5567047023711506
0.5535246459683639
0.5891204781126947
0.562111181168935
0.5629372478911334
0.5058512542997167
0.501818147267685
0.4825564834295563
0.4791260782854721
0.4722987636998914
0.4456447103410592
0.45713376502967284
0.47684418343895346
0.5231261375059096
0.5250772184506387
0.5484225592344634
0.5233752460379631
0.545263708263181
0.5368469727080252
0.6327046054370615
0.6808572948605415
0.9843022614135588
1.0
1.0
1.0
1.0
1.0
0.508876499463371
0.48708850393085157
0.5193647210650371
0.45991242033653296
0.4480130091982325
0.4304090088897
0.43653257755624353
0.44316874492580693
0.4428012778731982
0.4651595512044907
0.46778875631717975
0.5403653143602396
0.5304743024164644
0.5845002948110158
0.5590027000866584
0.5773239365611207
0.5652255969784485
0.6046091801662379
0.5879697997172142
0.6387247025216919
0.6273390364534925
0.6921663490277588
0.6996149730776959
0.7386593937659341
0.7357804153434606
0.7601822219298864
0.7952047310595065
0.7901850151461451
0.765062428467487
0.7120747132608847
0.6602130887371774
0.6310753340880056
0.5899471193148733
0.5796032931924346
0.5973101598563646
0.5380519572026035
0.5510474080550547
0.5205450187836501
0.561809382567594
0.5422580566987839
0.5715878400791498
0.5508644354740387
0.5953284878334645
0.5609274434451843
0.6076252553906976
0.7152018777695305
1.0
1.0
1.0
1.0
1.0
0.6744128196222656
0.6014046492628282
0.6207539809744196
0.5950041958816976
0.517836440938623
0.49588280713616467
0.46704275687282476
0.45173129658195565
0.45451759082445936
0.41884516150858203
0.4516728922142631
0.43122413745480637
0.4351272976217878
0.4063737050527054
0.4285447512931543
0.3951840793323701
0.44364728687810906
0.4470958426462771
0.49231396698704294
0.48485792320141874
0.5281014199168627
0.5209673661461603
0.5962914594723752
0.6395525601131044
0.6974457652034187
0.7077473871667037
0.7393770775840162
0.7047869170365695
0.6632912560951694
0.6335926381154943
0.598585390064981
0.5536698668154942
0.5037524014070238
0.4923230845010173
0.47277870231196906
0.46739967689564466
0.45054848989075164
0.47066532229248076
0.4411442322737873
0.44952000883568494
0.3986716295557587
0.43149147498497104
0.4707737161362924
0.5574649776673566
0.5331507129157526
0.5415352795078185
0.5226489373447917
0.5448312889041367
0.5036052661998893
0.5001172510735452
0.50479464662045
0.5044072532378988
0.4846274311849708
0.47783925049445575
0.4644701509854765
0.43880274058250474
0.426989093916868
0.4067601487144337
0.4268011626481898
0.4046335839417606
0.41798448605900507
0.40059663334582163
0.455540486003573
0.48762001602538707
0.5320991709938968
0.512560092444992
0.5355641741668609
0.5202381520918491
0.5461939628495867
0.5277306298332113
0.5574859528188765
0.532642863704001
0.6293492640558943
0.791700351203217
1.0
1.0
1.0
1.0
1.0
0.5841128380630329
0.4682207046331836
0.4741764588060959
0.3923274800301265
0.3708130539326325
0.3538954696021457
0.42125988509443807
0.4619576410192817
0.4729992223260391
0.44685798482015543
0.47880632715952104
0.45055532837594797
0.5081647438397154
0.4837135602791324
0.5348376584438989
0.5200366010868728
0.5244623167875846
0.5085471470224749
0.5192936673129707
0.503405644650883
0.5353102299197017
0.515287401360619
0.5302015434433842
0.527574052375769
0.5466573674774076
0.5766401289311204
0.601747151191879
0.6360496386100699
0.6572769424068026
0.7216025027195498
0.708707920925259
0.6830629520678586
0.6342211970262905
0.6347238259018125
0.5811670689203828
0.5899329258082162
0.5550496114092075
0.5563672655705031
0.529498085796946
0.5489240892553285
0.5113222053180523
0.5306553424511311
0.49870476384593354
0.5251362798278983
0.5275633870856559
0.5660528718724943
0.557686846088939
0.5737277818206339
0.5464390653378215
0.6070789146399875
0.594059576966595
0.5813805506162881
0.5784313779009743
0.5531504334068957
0.561152843729295
0.5299575074866013
0.5343784093098828
0.5127962296197377
0.5354869755448131
0.4964056586858141
0.5102106624502771
0.46780487380964164
0.5425231876689596
0.5231918112529008
0.5452345932609074
0.5024958335423297
0.5289884685848665
0.46473756850319353
0.534553939486011
0.5231961407331471
0.6017246580579896
0.594561259629807
0.670310219232461
0.7759645164362212
1.0
1.0
1.0
1.0
1.0
0.9731583151260637
0.6430625526170783
0.6329455236813301
0.6131145684977197
0.5836834203961928
0.5131631175517105
0.47543166495894795
0.4031116170709286
0.3987105554562532
0.4089315351044407
0.4741969562139151
0.4657277013951232
0.4968610058608639
0.500602531573231
0.5202628637336284
0.5149880845456849
0.5281688825495217
0.524513327642011
0.5646764775365644
0.5845030066876115
0.5918899968812207
0.6272108646125094
0.6481100068876514
0.6812593532583415
0.6662339639641128
0.6633245751215708
0.6542578322164772
0.6916942818821274
0.7216911148744474
0.7209936913608983
0.654352566971691
0.6479807916003008
0.5873701299779953
0.6014680968403168
0.5556703483744385
0.5534178545194318
0.5187710978196741
0.5417990654700601
0.5467628539212182
0.5813800992401885
0.5412955732296237
0.5153539553350857
0.4811014126626197
0.5117527440811401
0.4983443089891126
0.5300063896344024
0.5475008289381778
0.5617971258793204
0.5708505133851057
0.5551461136008885
0.5168182731800941
0.5333691299077371
0.5436196442877022
0.5327299734227944
0.5605979198513403
0.5234469698516673
0.5198183246948516
0.5055192333079882
0.5473916687609897
0.5336573659317352
0.5578135745970829
0.5188487399578761
0.5253231690680771
0.4835003883137989
0.500735023517855
0.5143795673256097
0.5618130100012078
0.5573025043600927
0.5842012904933321
0.5649302494632664
0.6300064345111396
0.7695314970789552
1.0
1.0
1.0
1.0
1.0
0.9673989423959697
0.507117704689615
0.5660895814541761
0.6031596909534205
0.5152130657065188
0.4410330441250978
0.45256036782877285
0.4481205384783979
0.4748125948694472
0.44990564221504226
0.44930555630221053
0.41870075216471936
0.4449254616006583
0.4205122055490135
0.4124252849445563
0.40214374344918324
0.432609718767616
0.43576000402469683
0.4770450023956337
0.5340547482266573
0.6121496106698319
0.6366081347444899
0.6573671253472213
0.7152193503926971
0.7368939619231076
0.7857077578595344
0.8038434022226918
0.8579677336364055
0.8173895285305649
0.788796939350612
0.6893768707786948
0.6439206930243299
0.5555885625113322
0.5249052491167637
0.4341175597361448
0.4116952416277728
0.37479203798020444
0.4061071181621395
0.39536159853451514
0.4711878281846033
0.4903542956732466
0.5774511977165305
0.5888987487340316
0.5939157704115129
0.5813007955698043
0.5682739084881955
0.5770923781443691
0.5567383469740095
0.5561919568348018
0.5336522080200764
0.5376857589504457
0.47673059312682947
0.4918672324620065
0.43219146712943024
0.45092885447587017
0.42652362228979424
0.44277758116876365
0.406490640293801
0.46349783664877914
0.4830627787062771
0.5598468679805326
0.5542943127954127
0.6195823282321776
0.671664645180401
0.729094273346839
0.9106886059983083
1.0
1.0
1.0
1.0
1.0
0.4308750229045586
0.3341133141872044
0.45460449068510556
0.3816429466574266
0.3765183369510006
0.34892301807569426
0.3899525074032858
0.36433055256492014
0.4017111003254225
0.38475444961487926
0.4953227142988907
0.4567618174337579
0.49123715012239993
0.46967707306967343
0.5086994752585148
0.48529000410871986
0.527990294347769
0.49006755897969595
0.5227101733766787
0.494329898563178
0.49758789516564866
0.48985854366450693
0.5411158097711127
0.5626033037198452
0.5850604799991124
0.592651106674164
0.6173504130744711
0.6400801866493908
0.6276509587429728
0.6426253050325594
0.6148959145839188
0.6312135091375035
0.5928731557702942
0.5859137495326763
0.588714524669187
0.5705593109109897
0.5210768944505727
0.5329665924741309
0.4592504110362537
0.48668034243282526
0.501455266104485
0.525590192341306
0.46232534568424866
0.49343658056862266
0.4701415015648359
0.5170078266141774
0.4709386152315559
0.48096959595498434
0.4801998934848125
0.47444854503643785
0.4676748003203818
0.445016829362271
0.44011321223507877
0.4294212962867013
0.4356692569904578
0.4234774176936413
0.46851520346657016
0.4413311012186293
0.4611403333456535
0.43405059549950054
0.46678366616287736
0.42742326935600133
0.4580516851801432
0.4107794837485842
0.4407314974340408
0.41397135232081556
0.4196820798818088
0.38287010152246603
0.4508117539111226
0.42708642037208194
0.4381125100147078
0.3856748689747131
0.38646202582050027
0.37008630201157916
0.41429310970611055
0.4432913542948307
0.4244749063798651
0.44885038829432633
0.44788165367943866
0.47509645073990353
0.4605018816396008
0.571541312016284
0.6538043793259705
0.98210672312239
1.0
1.0
1.0
1.0
1.0
0.7572599096230331
0.5966015817946844
0.5450684142472572
0.4668536044938583
0.48324538592258737
0.4334518343979569
0.404199166922531
0.38053346343517586
0.3866309150845348
0.36316868749785947
0.384031014645835
0.4130641899464587
0.4257940108622926
0.4458710043357663
0.444956575825901
0.48984397061091733
0.4703793358493143
0.5009505797958151
0.5116854365664321
0.5740996679331583
0.5417494608379285
0.583697775984849
0.582418775997992
0.6272254815455225
0.6140676919736434
0.6429819324433732
0.6374869421393367
0.7043147227758517
0.6677342131347581
0.7121448112115999
0.6517043742709602
0.6489530295984649
0.578226443281926
0.5599100324136631
0.5279191284085687
0.5366128753603803
0.5138747022741598
0.5088615602980401
0.5068225367007428
0.5100268085544095
0.4881315808761496
0.47725945489421007
0.4667262548870167
0.4532784775578399
0.5014499314748669
0.46233159940032814
0.48794741434115946
0.44377654905663677
0.493017417543071
0.4986523732939038
0.5321756078990821
0.4825877603352523
0.525089853866932
0.48555971216468424
0.5014875760808514
0.47248765378066365
0.48328060404413964
0.4759741668540845
0.49149195864019407
0.4776995428437448
0.4718217207076159
0.4863730533836253
0.4642972458058495
0.4301862250892953
0.3763457208263975
0.4067405320185305
0.40012810803344206
0.40581572322749704
0.3872749968781967
0.40470288471855975
0.4059004884529018
0.4145238692589304
0.39921477368790004
0.46372969662648134
0.4391376022201513
0.45132690243168183
0.4113353659699845
0.4659751460453031
0.43974921587728977
0.4907457104336304
0.45531615771624256
0.5721174705947252
0.600095382650243
0.9358290398063296
1.0
1.0
1.0
1.0
1.0
0.5870128351052868
0.5424086542031213
0.5234851993273119
0.47249328997005857
0.39440735922266434
0.38203565897433533
0.3891378117384378
0.402119590758571
0.413365820168994
0.43317446873060594
0.40318793377002765
0.41121132691807594
0.3897878248546294
0.42708675499403814
0.44125559223115357
0.5143628318236438
0.48266510252786077
0.5163840620599754
0.52047991509927
0.5779478934042421
0.5773388474204291
0.5891033223228825
0.5796159824702534
0.5853905115014648
0.6084917293194172
0.6880254975687526
0.7326821589133493
0.7119422124027196
0.7358292380811353
0.6979269861496639
0.6891021305776416
0.5989979775411395
0.5770381004799042
0.5693816655036078
0.5586542309757243
0.4820665981667542
0.46789738304874484
0.423873372479166
0.45869346525684873
0.4581494830101692
0.5036462303235999
0.48742084331515567
0.5077013033893184
0.46951349839469636
0.471072391074214
0.47840379622704143
0.5736290609991272
0.5513723666398622
0.6110051682904013
0.7331410241769214
1.0
1.0
1.0
1.0
1.0
1.0
0.6763256192892576
0.5492139961142366
0.5120790274941209
0.5247628506658584
0.41001708875049053
0.43218935585710067
0.38230558792414915
0.4011150223910258
0.3386924693369505
0.3208220022549058
0.294690051855124
0.34308160937929594
0.3390286959594607
0.37469850873067256
0.35378331825083925
0.36213491197087033
0.37821294642694525
0.3666237818705531
0.3673096140401356
0.38453491746547275
0.4053270129735417
0.4140382945136782
0.4504657174120412
0.4820995892802132
0.5098390256241502
0.5298248182886124
0.5797820594913985
0.5881006952472496
0.6566389190207231
0.6150998811244802
0.6584226735068268
0.615437566731699
0.6485384957795676
0.5615354513262647
0.5675844079516106
0.5102930933347672
0.5030701937063558
0.4662359965986095
0.46774179653875453
0.4269057987161034
0.4100905665075277
0.3919940462209911
0.4069655430784781
0.4065556879848692
0.41037612987235556
0.4412397142692659
0.4363162024275475
0.4477348049454798
0.43273041914964755
0.4444607801860815
0.4185154246358495
0.4534336847061925
0.4338709960638207
0.44379731893166763
0.40820522140346605
0.3989160105244943
0.37318679398236176
0.39530829746875973
0.34009238954495313
0.34288787916841146
0.3132283035667204
0.3266912164267267
0.2879171227407102
0.3014595089188002
0.3155132350609984
0.3391654996570795
0.3136501204108917
0.3201131556172176
0.3070940233370826
0.3465344732095672
0.4010245139365461
0.43975419812207994
0.4491964985743636
0.4395857578912046
0.4889703600602725
0.49839006463030244
0.5225200663165042
0.5501186674181273
0.6643243978198162
0.9164879306158612
1.0
1.0
1.0
1.0
1.0
0.4743713192688926
0.4404907819294097
0.4262314949050647
0.33309871325737717
0.2537805326397836
0.23165500286736246
0.259090803019047
0.3344455144133519
0.38744726527448015
0.4015390502081434
0.4358782662993114
0.43533672782429234
0.4613314110794244
0.43421253704344515
0.47980209899406123
0.45397587857633076
0.5081246954430659
0.4712311267150276
0.5164516833742572
0.4899239681846139
0.5290176650848213
0.47708573316399694
0.5186917143870968
0.4522580785982558
0.4630611011494919
0.440923003745588
0.486465998614663
0.5187346712958396
0.5945879461176593
0.6321032800777002
0.6641349146006074
0.6641159146435848
0.6663070162908249
0.6233719934525211
0.5911413822541307
0.5896361813159279
0.5866984860886084
0.5871683690369329
0.5701712903789586
0.5945738997237212
0.5314086740325678
0.5408988486779103
0.49808211495364174
0.509644707126997
0.45335536459506487
0.471650140645637
0.4076208468483852
0.43705751352223665
0.4152340019419213
0.4245818232230783
0.37347813061551466
0.4180165560360187
0.5161073121281752
0.5528548996877173
0.5230123016479145
0.5314467794716727
0.5080438634955675
0.5436183200889362
0.5339564444955027
0.5113466765803372
0.5131777011325009
0.4949848141064149
0.47505754428263086
0.4147605003333621
0.40631653944889423
0.3972057323781768
0.395989016531675
0.3972669966023746
0.4262528491938748
0.45108407486858243
0.48426259462283106
0.5163831068742195
0.6050575627191244
0.8303727692992064
1.0
1.0
1.0
1.0
1.0
0.886517981473291
0.6895594020579845
0.6120136635137993
0.5536181758956017
0.46841564894283555
0.428460033760311
0.4059100097457491
0.3611424570179498
0.3530767994732828
0.33433934220515066
0.3459572433387446
0.3546330338346257
0.3973489304694562
0.3881312642049598
0.4201472822222384
0.42263542629069006
0.48559621589064267
0.5046651399255263
0.5666861181840348
0.5663107454833938
0.5772900749608183
0.5741666217900219
0.582704099123047
0.5637348965446348
0.5808143883897239
0.5607471549992952
0.5689387007925335
0.5566989964828584
0.5586710111435048
0.5409458367844844
0.5162017369455703
0.49071157451812963
0.4813414645108474
0.48787170071498914
0.48052004789205965
0.4751422269588689
0.4473291952081741
0.4986558633441164
0.5100580754451448
0.5338169934331132
0.4851326217677343
0.5210020892075974
0.49120636324869726
0.5250617327322716
0.4570527601059588
0.48842785705117897
0.43886606030879766
0.4681044532742645
0.4338883373054531
0.439213142555393
0.4018993647303592
0.42291578004872676
0.4056737241065214
0.42821146041360436
0.4194941451880556
0.4239593297775796
0.4147229856063401
0.43176091062574706
0.41992291124741676
0.38398213565712275
0.4097508197819323
0.40252157542588796
0.4196581038128365
0.4067211065055664
0.4521343850843852
0.42914317981771155
0.44141175396088156
0.3954005979475811
0.4324117549673949
0.3724981052177479
0.4164842569308208
0.39811046366982383
0.5255982002025591
0.5398707273200257
0.7750910169237681
1.0
1.0
1.0
1.0
1.0
0.48446600603121037
0.4530127028853568
0.507666163259165
0.48722416579590544
0.4552772675076196
0.4601855814577617
0.432918814721097
0.4540198130058436
0.40889248325758915
0.4446929361303435
0.4213010096887655
0.44305303079877467
0.43927875827513707
0.47650721419558745
0.41419494951985714
0.4401423773888123
0.40652100137034675
0.4420432758736289
0.39521545115162854
0.4407968062456506
0.44522328103827985
0.5402075623353928
0.5353901557702223
0.5437604364625119
0.5558706979269895
0.6022025242273847
0.6196591119326262
0.6450938358915492
0.6407196360956865
0.6037864671161373
0.5603907276286586
0.4996197842164018
0.52933420992413
0.4829375980088909
0.46328042184159113
0.45084734381690755
0.5018948068874081
0.49377147091524326
0.5046637601099581
0.49730911174171394
0.5113937598509474
0.46523089085225616
0.5118279247332229
0.4893531526164902
0.4984996025131239
0.4951559022609615
0.5645852359060124
0.7139934321273825
1.0
1.0
1.0
1.0
1.0
0.6974850594948472
0.6211232644338799
0.6042671496121144
0.5165267214664563
0.4904138134425688
0.4163030233807884
0.39176192794950143
0.3320535540860865
0.33927731608388895
0.28327493068988974
0.28232873462892794
0.2324915242516304
0.250101368759856
0.226455032721861
0.26053534037718745
0.27966865551323095
0.34995151154604753
0.3826624817986669
0.43181869545141527
0.43479289016091316
0.4475649561479069
0.46441215490866705
0.5045685761466413
0.5763954671955053
0.6059166738669354
0.6370755761670073
0.5950132903221957
0.5746518150877614
0.5020295809576246
0.47135673229982844
0.43589592993155135
0.4431700868883361
0.42500342634716165
0.5413900859882421
0.6849969430386345
1.0
1.0
1.0
1.0
1.0
1.0
1.0
1.0
1.0
1.0
0.7008719350934902
0.4086402183658941
0.23146696491633706
0.15621450939072243
0.15237009655815248
0.14769867602532522
0.13645116512363753
0.15733087918178437
0.1652964631208053
0.2065759182206382
0.16371503093119485
0.1947363439458912
0.1975743784260632
0.2650524691071551
0.28352107272522176
0.328674659634734
0.3137566390978902
0.3817296023409621
0.35915407879352734
0.40480520940715464
0.4140040772683384
0.5307670309166252
0.5856667083051442
0.6484467066418814
0.6983918881964569
0.7595705067149912
0.7520252658088304
0.7345242079486247
0.6679325420794942
0.6027188138199359
0.5453889988591787
0.5220467679851672
0.5121088415025856
0.4565542903144021
0.43167073750750307
0.387006922190379
0.37716583992690556
0.3261500150152262
0.3329652097592943
0.3012852525154708
0.33083485716142563
0.31578590403399487
0.3321203418558675
0.3025699886157667
0.3433330169874697
0.2925561104662412
0.32134026265603916
0.28124524685482133
0.3219060976567859
0.30433265899852796
0.34980032239564435
0.3516634456228903
0.363957269708032
0.3702741130765147
0.34428674001708365
0.33919223958837746
0.3433617787691269
0.3415173104393873
0.30347645493133096
0.3252852982429002
0.28345163477975654
0.31768472161450295
0.2799835660756373
0.3129521575017184
0.3061206983433297
0.3430768393003606
0.3242215175747464
0.3737069542565628
0.39531489875513987
0.5352398491326134
0.6589586449784861
0.9385652590473612
1.0
1.0
1.0
1.0
0.8849111005071647
0.5120313726315496
0.4853932206617032
0.4294574420211562
0.3551967578256943
0.3168526912074257
0.29832765589687255
0.2631495396432423
0.2860741187751401
0.2738131831571095
0.2926820427413649
0.2806625599658596
0.3189577521432521
0.3008552408694573
0.3265084912347748
0.2883654124656764
0.3504024570505971
0.3604390257512756
0.41223202343304904
0.4337581671974144
0.48356246309806955
0.5020007221528402
0.5302503064527456
0.5166829023144411
0.5306499890349795
0.5538095070400066
0.622421295470599
0.6461994539118752
0.6495318871758805
0.6449761489043631
0.6045959272958576
0.5759224509437517
0.49096440311889855
0.4508008956558183
0.4363277896902649
0.44549771091482865
0.42030052588990185
0.46171361904369207
0.453966769764342
0.5008013201185528
0.4938582552164548
0.5226608335057927
0.498616357542924
0.5421390763102667
0.5395553065976535
0.5420193170747918
0.532527154092846
0.5231313795606872
0.4676836978820781
0.43739512138143366
0.4218122002166205
0.38486678189017476
0.3604491469271559
0.31019796322557547
0.33213324897231455
0.31135883437164025
0.3356139038010827
0.37943792044111085
0.6408555524926711
1.0
1.0
1.0
1.0
1.0
0.7786016375541913
0.626819623819471
0.5613143808362819
0.47371157582136814
0.428527097633712
0.36074931730043724
0.3473382071045964
0.3245658521665831
0.3065256107406822
0.2970157594799856
0.2884701966304698
0.2749226496271514
0.26601930477977087
0.2757459054977745
0.26103656054075614
0.3184491943558813
0.343201129308803
0.4216461630829378
0.435162314159507
0.4937192702226757
0.47061392780405653
0.5072214470115102
0.46469186922801187
0.5040333853107599
0.47990557840907677
0.5376234346429053
0.5168620436531876
0.5306513416126096
0.4935213365184296
0.5066407897813459
0.42889899846568486
0.44205979102286486
0.38646435569514903
0.39408641496741376
0.3454353232262849
0.3705069850299597
0.36798142839302145
0.38803242176122094
0.44877869893661887
0.48988052895573936
0.4792844245579263
0.4542874480978556
0.45361295428242154
0.44367359209415225
0.4451194965464901
0.4074248976195468
0.4308342118967824
0.3686316163341373
0.3911525428070146
0.3507975143772887
0.4081537675889811
0.3418574291643556
0.39526034537378263
0.3823179224207446
0.42996088553247
0.3912185089672958
0.400666194230471
0.37760748253580634
0.3959019403855497
0.354932317120522
0.3364242155290751
0.3265865651211158
0.4024422389002303
0.43180550164235704
0.40207348038233165
0.4109808922050899
0.37653778624283574
0.37732562588432217
0.3427634006653289
0.36739985310704776
0.34626135476131736
0.3851882437954943
0.38397445529465263
0.40316757178349194
0.4094053584350073
0.42426880751586377
0.3992621645455522
0.41005974636203
0.39106381011343166
0.4044297358167045
0.3649273446021389
0.3862250946420004
0.34185434552198296
0.39241681070997203
0.39250337272433666
0.427413454702595
0.4320222181201717
0.4394191143746989
0.43036714042511715
0.42523386880639374
0.43589494148403335
0.4043592488025178
0.4173201886551833
0.4171598036311973
0.4396793415508563
0.4141936230552871
0.44331565482893753
0.46409554641058326
0.5829993400990912
0.6960881624172408
1.0
1.0
1.0
1.0
1.0
0.8891170425988802
0.3763584026691814
0.3042171279578896
0.5108212368548661
0.4935821218114181
0.46860099496414076
0.45926033497670316
0.4800470491854095
0.4164814595611535
0.4249506204831846
0.39969547253981974
0.37953759139276716
0.3783875089329261
0.40043184945632976
0.4094691134116027
0.3932509450855335
0.42384062480174584
0.3870885523033272
0.39156191482594316
0.37977550349862427
0.40427400335053393
0.3765958316176389
0.4344492961894395
0.43156649866314273
0.4845471029377806
0.4660014960967415
0.5655532652667217
0.6417045085986873
0.7228805369586004
0.756352694084376
0.7773343441375354
0.7884502535241527
0.7948878312667172
0.7592827467635812
0.7492581599393076
0.7213818067652729
0.6692025948713785
0.6198391828310069
0.5770746881392903
0.5327570345599831
0.4999609582802984
0.5026761127821322
0.45644192434914277
0.49011857139880843
0.46267446894230313
0.5285372265344128
0.5014298737777403
0.5588354728427279
0.5499391759787565
0.6138742948055074
0.5966322254719261
0.6894763802428047
0.724928709988333
1.0
1.0
1.0
1.0
1.0
1.0
0.6108299290066441
0.4880992857976219
0.4983438751332421
0.4713920910183179
0.3963859766649816
0.39175978624222124
0.3599842769862954
0.38457311116781145
0.36699516267547044
0.4036345228878081
0.3934911981906043
0.4194005326095832
0.40294212866123685
0.4563886177084323
0.45812293459346237
0.522706374490854
0.47397946624427545
0.47877719081342446
0.45379395136869255
0.4528031360240063
0.4528159006672823
0.483657229423523
0.4753650374593944
0.4855849163044882
0.5063074922734792
0.5167794702474976
0.5725789634753837
0.6027299496422414
0.6417473956752943
0.615876287144172
0.6022551859732358
0.5531902098325516
0.5138096284608663
0.4312152996919497
0.4268414274381921
0.3789422458241393
0.38207452927428925
0.34578619521528176
0.3709638409454213
0.35533676871828435
0.39549133129103137
0.3958771871006528
0.4386760280860697
0.4515744771119078
0.4917545332608132
0.5145909931030084
0.5434718492379257
0.542580850007639
0.5387882477437058
0.5404242978335377
0.5442074161192056
0.5407901753385614
0.5145236798702433
0.47984200688943474
0.439845652743843
0.43140723646947104
0.4033269880446624
0.4042999919068306
0.37645584115316816
0.3788008187114624
0.34321017527265224
0.34854699249571597
0.30587692279156065
0.33231483206745266
0.3287254869505958
0.4025459514934896
0.42052009322909817
0.45051148839188493
0.4178723504731975
0.4795195785318157
0.5175813663057193
0.5440391920045167
0.5088248091307606
0.4968268620937761
0.4810786707857681
0.47130955538311914
0.461558102989052
0.43461579989588583
0.4562208854695095
0.4825968000080006
0.5477828328631691
0.6745930419699565
1.0
1.0
1.0
1.0
1.0
0.7846075603963497
0.5422176131361792
0.4920578522220208
0.5477392184142345
0.46900088018165914
0.5253603933525032
0.484873987312633
0.47520037827505046
0.414152188028691
0.4252177556891488
0.3834528772080234
0.37392667844184435
0.37576062324162757
0.38348524195867145
0.38253144899222946
0.38521380578618636
0.3775963854140535
0.3653412937962499
0.3829176293296827
0.3597030747040816
0.3819895223966352
0.37220713846256215
0.40921055249541743
0.39354984267296533
0.4165105106776087
0.40371637298407004
0.4648334647562867
0.5089203633399347
0.5882267696090537
0.5732238482861607
0.6107732229236528
0.5954902263902815
0.6334724024776379
0.6208486381910694
0.6154685295179388
0.5636064300353901
0.5464594659087976
0.488564750296978
0.47068310155600396
0.4497091244034966
0.4199369394696876
0.4169234846102777
0.3861301129646457
0.4017762522411402
0.36592132188942406
0.40939230134544047
0.39824211822187283
0.4447128078061315
0.4722218251117084
0.5169454368499651
0.4498115156285759
0.4823500545765033
0.43587796429108094
0.49250798384189415
0.4634440194439812
0.449700035827881
0.4147708105207465
0.423145026496025
0.3803198948239242
0.37955243903263564
0.3531061080306549
0.3520209889393507
0.31166939033139307
0.3130428447131727
0.3156092001779203
0.32191216067539524
0.3362762343017671
0.37660496892149964
0.4553924803666458
0.45114222177516894
0.48963739744584756
0.4598800276760248
0.48272114703469493
0.44768317927966395
0.4941728263695181
0.46030401518353037
0.46523861554772683
0.48899853489486056
0.5753483261972298
0.7335151396096296
1.0
1.0
1.0
1.0
0.882070454559965
0.359568724453009
0.3474714003285443
0.3725923573527491
0.3439471396271201
0.32879498805404694
0.35121312625685686
0.3700353476546995
0.37480372835282133
0.39160404077782235
0.3941476423467282
0.40251264618276067
0.3763763042327768
0.3876971587548379
0.3516601968580012
