MLII
0.5
0.36510184810468094
1.0
0.5972314722720115
1.0
0.7013780100451894
0.8994931722042286
0.7235264961672632
0.8482365757544139
0.6651128767274032
0.6631529380186002
0.678157300363106
0.7299644557629863
0.7276137730467467
0.7521369928592765
0.7638966186425917
0.7277489920174272
0.7568774083059586
0.7439593491530699
0.7156070950160719
0.6518501593331315
0.6178155024175069
0.554135046108798
0.5120341550540943
0.4526158628992505
0.44880781862857316
0.3723857508111076
0.41473774954624715
0.39590133020647056
0.41808908143023593
0.398110375720762
0.41477822730024744
0.39422075041910604
0.41808505414568914
0.4106884742766178
0.4352968563189787
0.4324766651026743
0.43379415470111776
0.4342721687062725
0.4351975940032709
0.4328798814921542
0.437915153158296
0.45820825475662585
0.44665095960336887
0.4566724874974029
0.45443010426763236
0.46498778913177696
0.4453285824823176
0.46597128776858054
0.4470530198239023
0.4697016234436572
0.4519399073010413
0.4719665960004086
0.4531442537656858
0.4646352006447024
0.44931487055131314
0.48005127568159145
0.4701484688292272
0.4768277341932906
0.4701758629407335
0.48828527676988787
0.4780074260943884
0.4934248425970208
0.4923683138435603
0.48310578567714846
0.48811573679930176
0.49681044515680084
0.5022591910677786
0.48223690471729663
0.4940629483010951
0.4795602360038407
0.49950791034792064
0.4892285260876177
0.5169199846865262
0.4822178338292214
0.5102003618775006
0.4845173115045854
0.5159816896125478
0.4962747393160428
0.5206082569872093
0.4933740025465728
0.5253714700981333
0.5
0.5375349823378607
0.5101399215928117
0.5414744273605451
0.5076717077154502
0.5363966070104146
0.5138879721835388
0.5283106379885129
0.535555772093921
0.543696807525475
0.5371741147552169
0.5404087357334504
0.5551101095235966
0.5278718668552873
0.5423672561168462
0.518300096552921
0.5707736125663221
0.5222501794347242
0.5610184676833165
0.48553924318753683
0.5664286588405181
0.6165667668270085
0.6704283980515794
0.6362135672232957
0.6495918023297815
0.5670133839775472
0.5635873944312138
0.5006078353103911
0.513093190730393
0.5429346116812757
0.5316058968233077
0.5318062445197946
0.5446864923262729
0.6022958227642168
0.6822425425107681
0.8516195507919294
1.0
1.0
1.0
1.0
1.0
1.0
0.7764124242980177
0.6342783716278447
0.6268171679919179
0.5701290962080723
0.4778503537690617
0.4745574505720563
0.42529809424137177
0.4453916443921888
0.40663376084882674
0.4374655159991227
0.3949872679175189
0.421042745220004
0.4101358727405463
0.42715822112571666
0.44624803262172874
0.4527743673111314
0.4636612656913095
0.4651245631174864
0.523274945485402
0.5139488157645077
0.5838515619216049
0.5772808480815727
0.6589110903307023
0.6671106971436812
0.7545444215066659
0.7643485696071715
0.8551086891951357
0.8679705323946306
0.9706619225693611
0.9762043136877473
1.0
1.0
1.0
0.870566888739166
0.8297025686258201
0.7070190780474006
0.6546406333025054
0.5744789239268087
0.5482515567555476
0.5001418586952583
0.46877898669329604
0.45056381304470045
0.44531546311055203
0.4626891159347055
0.44183422400971206
0.45825033288621386
0.433414038344485
0.47492384934692833
0.4456640293230472
0.4847597154273317
0.44764849397527173
0.5038294900386572
0.46463177736312194
0.4999444237295541
0.4591744096089935
0.5035039054846413
0.4735263086922383
0.5023352184775065
0.4750945406041864
0.4979370632342383
0.4390753569592573
0.47150575861417865
0.4567871886166467
0.4712436334882149
0.4623078080800534
0.4613039862522762
0.4630569294941728
0.45486679822691045
0.45406947724032143
0.44120345935528016
0.45073268557593044
0.4339439169742734
0.44861573040623687
0.43358805984198756
0.4898914947862435
0.4374200045142782
0.4926765171583701
0.4324733486349701
0.4998443008050447
0.44321293868249134
0.4941077561630731
0.4482467655560377
0.4951299367787443
0.4624300637253419
0.5051870918585516
0.46891007971057574
0.5108785355933586
0.4791838286816327
0.5
0.48847662151681215
0.4944935073603937
0.5114450366351482
0.5008086501504926
0.4746684750887189
0.47947561421190843
0.5222495384067203
0.4912549969475791
0.5355004935058266
0.5
0.5404625435147803
0.5012328464570648
0.5650285684073607
0.5080698047337299
0.5680683794686812
0.5248738470991929
0.5808023795323078
0.5221766595920062
0.567550202252072
0.5190975433447456
0.565218914815772
0.5655601188891795
0.6069239828496723
0.5678319983275256
0.5799405683304467
0.5816137053748622
0.6829186225261437
0.7170590392233229
0.7284547469780003
0.7054135709447907
0.6264239336740884
0.6228921456348027
0.5647260211592398
0.6122122887429684
0.5858846483479638
0.6297682003357142
0.5973531174582064
0.6833527888193943
0.644613074226931
0.7575024926334755
0.8595938904329017
1.0
1.0
1.0
1.0
1.0
1.0
1.0
0.9328540808114967
0.8584355102499733
0.7415748312735333
0.629783995622083
0.5906028122340811
0.5411345083132626
0.5410011040744298
0.5279454072912604
0.5328454309540362
0.511637691578648
0.5621801617938537
0.5293571272905461
0.5722702022242926
0.5328160834267242
0.613236597989431
0.5647807184427742
0.6309648437652825
0.6297838618305553
0.6917753684759455
0.6587771365686685
0.7712523879626405
0.7480522800756922
0.844975255988871
0.8709640591169038
0.9674991121586618
0.9853130642201762
1.0
1.0
1.0
1.0
1.0
1.0
1.0
1.0
0.9916408860554593
0.8990446501193035
0.7537030081531721
0.7170963159443078
0.5805220863917431
0.5554050989948129
0.493299927562716
0.5294990312610193
0.4750131228255573
0.524254666452671
0.46899477252449406
0.5147423057977892
0.45268428016988826
0.4856049312974819
0.45288078523631486
0.47568271814383073
0.45211003262243565
0.4607137223392104
0.46257580373873813
0.47878722088152276
0.4835856367201041
0.4587645531386918
0.4842183904500498
0.4619363394213455
0.46910019307129575
0.4396048534960201
0.48542568306835926
0.4211451893368047
0.46312637250787947
0.4174949105172832
0.4666475805329468
0.4190574598854334
0.4708065237117832
0.42039711237071387
0.5069082948214259
0.41305948132618947
0.45955774096761093
0.4340188749923183
0.482954185790184
0.45085505403638904
0.4852137119079452
0.4676067896898021
0.4882663395039297
0.4570311204734474
0.4815687417941755
0.4930955424356186
0.48130783746259265
0.475353422532629
0.45398913557018156
0.5137250984552486
0.47749040213073624
0.5063911069985508
0.5052422996063696
0.5022151783375209
0.48636355664654224
0.5172298502645137
0.4840253860170461
0.5359213988754713
0.48371126473775117
0.5057469195631551
0.46575696656525223
0.5089574051416413
0.48937596845187825
0.5366306513884449
0.4948053540964226
0.5516450673897925
0.5032461064937924
0.5358260097283155
0.4982489757419201
0.5855243999235217
0.5266389783667437
0.5725763058204937
0.5256095868521008
0.5703637069429821
0.5427333254356337
0.5638367297126464
0.5218572288429308
0.5593638310600728
0.5733930813518132
0.5768041804927648
0.58502354004441
0.5658911484129633
0.5908310700759307
0.5570037023969561
0.5584351404675433
0.5496078458210774
0.6876797884526132
0.6746543895748902
0.7255536500668909
0.6527117234354385
0.6515266772589479
0.5687035784915484
0.5958987089151631
0.5194010103355879
0.5903567346955375
0.5382891231758389
0.5933916146797553
0.5651559312671585
0.6052033387296246
0.6006694787149964
0.6801598490495265
0.7998922702596245
1.0
1.0
1.0
1.0
1.0
1.0
1.0
1.0
0.7665313130540307
0.7916423595326638
0.6510071365360963
0.6086832235644933
0.5104172531622599
0.5445630608515836
0.4564389903840236
0.5136166673428201
0.4624769150311366
0.5180029987559456
0.4566263410320269
0.48770706098162775
0.46379559622940086
0.5010215628528303
0.4827628848375071
0.5089151128807256
0.5224243040387139
0.5621573696720609
0.5574244178846376
0.5686689380630165
0.6139862179890005
0.6322377286809446
0.6815166852707353
0.6954065975772477
0.7879216157582605
0.813020036019871
0.9357267674656178
0.947713959171524
1.0
1.0
1.0
1.0
1.0
1.0
1.0
1.0
1.0
0.9139710430698997
0.8304326786854602
0.6900288600569112
0.628535230874793
0.563210344397327
0.5459481666515146
0.4940724125095494
0.453152653046455
0.45160728447425064
0.40866280678258426
0.44762096178825717
0.4044774461331372
0.4679495579809652
0.4207668801648956
0.49014618907138835
0.4095957356463497
0.4613779725130083
0.418876709370194
0.4699932851736811
0.4175897658512676
0.46879694198765465
0.4252098774874872
0.49301566440672484
0.40164874608012247
0.48125143498111334
0.44840340824273917
0.5115481217232469
0.48847230088405896
0.5073506332409101
0.47547044278818407
0.4714500136626839
0.49075064996142037
0.46445647005174584
0.5013198720057652
0.4612568199118637
0.4980913781681915
0.45732662559895765
0.5166106584181744
0.4601935045685882
0.5249878698915487
0.45346965493343994
0.5267256596182807
0.4325509240523405
0.46004334393008894
0.4050502898207875
0.47991920945789524
0.4339968528341075
0.482332147444491
0.4332669875463295
0.4876114328477302
0.4312643362723277
0.4766271515746479
0.4609125206257749
0.4796228392445451
0.4343444987930125
0.44847766012313367
0.4508410695771839
0.44074215891575086
0.46873997328691397
0.4510040550858053
0.4645686508435064
0.4292306902232329
0.46059429872310653
0.43805563808679715
0.48150197485877155
0.4382152412698626
0.503883950134389
0.43391711526121207
0.5088724643872271
0.4340003031736611
0.4848677746579753
0.4546445190468912
0.5053308657284544
0.4614779472006294
0.5094951069922832
0.4769658008522753
0.5015207325381287
0.47179549139756033
0.4948056533745448
0.49823673248289424
0.5197591061861898
0.5097251121095225
0.5448426185870688
0.5580270113137903
0.4959411809316161
0.5548831436738342
0.6247410083926873
0.7159922026456386
0.6736607867547998
0.7064158504518421
0.6247613379017892
0.620728978556545
0.5357599443833093
0.5887331123809613
0.5505675556346554
0.6018498043999447
0.5338929236403281
0.6127105472397563
0.5906063193329721
0.6962131971504295
0.7162896042405098
0.9167951212687431
1.0
1.0
1.0
1.0
1.0
1.0
1.0
0.7151125417234295
0.7938341970828614
0.6179075865741233
0.5841974147578666
0.4765728708660667
0.5219879999531927
0.432917619785295
0.48983914713558185
0.4144999248626634
0.4520777672577065
0.3961655996228536
0.4557955370576403
0.4374843021408414
0.509725804656654
0.46517105477336596
0.5367320999595929
0.5180711959163722
0.5668287325750293
0.5485704146369335
0.6363514197334753
0.6635612685915359
0.7061773858376797
0.7493501839760388
0.8115754659694325
0.877484043660932
0.9258195437107963
1.0
1.0
1.0
1.0
1.0
1.0
1.0
1.0
1.0
0.8952793755869397
0.815923301548868
0.660984534016323
0.619766948243927
0.5038052553273799
0.49142630859627384
0.3947445109281341
0.3987329118836095
0.3763715016597796
0.3508476743706012
0.3435356801184766
0.3621048426116243
0.35020410203115715
0.34977671727750587
0.3580833735436178
0.35302616301977896
0.3836148270805902
0.35633298210671577
0.3890080564741069
0.3578825099191956
0.41489678986510237
0.365352960911461
0.42139138900133
0.3625399124860558
0.4275927634777753
0.36721251540603805
0.42745883089674797
0.3678203003195512
0.4256561116550541
0.3610858919859578
0.4119395904010659
0.36533530046208035
0.40540232997908177
0.3812539700326882
0.4048002453211036
0.3870209394917472
0.3843361047603958
0.4175581522256951
0.3982968725593772
0.4061599196486432
0.3829604779981938
0.39502578083213874
0.3674493126197782
0.39756619766582746
0.3730576212439395
0.393450303996653
0.36921415666684265
0.4257303044909501
0.35645423282111655
0.4021234659959806
0.37001197483442533
0.4212839655733632
0.3622804185657582
0.4235858783856264
0.37831564495960773
0.41255284017211535
0.36253987059264914
0.4016092075370062
0.3683297788160968
0.41081483679536684
0.41081352390375214
0.41814086443581766
0.4193321973835248
0.42727033377805235
0.43933514083036396
0.42917968446872684
0.4567764679341758
0.3982340515339087
0.42130574955805056
0.3996948437302618
0.46298847175262015
0.40030168149693496
0.4442749779644165
0.4252165629334936
0.4630509256481103
0.3843041275153637
0.45200374613762906
0.4325726125922046
0.5000265648177349
0.4732629981930315
0.479770662192022
0.42887703380703435
0.48592274510562083
0.5539857012691998
0.5865814478273562
0.5665681777024385
0.5764756097883422
0.5296276101047306
0.47928766060084527
0.4533870465004986
0.4351958416958592
0.4573655531617383
0.4378582037485053
0.46518790101642854
0.4183132751666654
0.512560570037154
0.5324391651093083
0.7170030661967068
0.9162031028374293
1.0
1.0
1.0
1.0
1.0
1.0
0.7018640305232867
0.6374398033431348
0.5227162941184683
0.40877617926281573
0.4034375462974973
0.3660968401257504
0.3565266542011768
0.35238200404398057
0.331562216496527
0.3474168717618073
0.314752225956186
0.35641850978034223
0.3290873334321761
0.37377789305900205
0.3715362969931613
0.43171375902449877
0.41078721669300516
0.49208055211749074
0.4642038076815055
0.5561673176792945
0.5349658160886295
0.6325659839810329
0.6400558019572462
0.7474325679097501
0.7910310294277011
0.8998289514589313
0.9189551821397007
1.0
1.0
1.0
1.0
1.0
0.9450120142306002
0.8243710470268226
0.7167807520443532
0.563952163613253
0.5198289562671199
0.44389032849311094
0.42227543241102766
0.3428991919252674
0.38157054231212617
0.3088267164009985
0.3383762269626678
0.2883313465679903
0.35277990400468295
0.3026938441075382
0.3591115110838613
0.3245339929424551
0.3710824019070049
0.32682636799477055
0.3719174658219894
0.3355409016258509
0.35962031516670406
0.3286863453905367
0.3384285472282612
0.3384738036756332
0.34691208942979535
0.3380409154946641
0.35492272163676414
0.36159244427060305
0.32917080457098014
0.35871708666873425
0.332626230254818
0.3618260378209623
0.3277031972920447
0.3429046777249776
0.31155110611515624
0.3502218991898133
0.3001133475786418
0.3221276273294903
0.2862331585912434
0.32589240022792854
0.3010273703471166
0.33929565115253635
0.3059493719588606
0.3348649032367903
0.310347001646087
0.351964556892565
0.3115271718707427
0.3338322382852333
0.3002550529510504
0.32037390649207
0.3188030028777514
0.3134640779168848
0.3246533864714304
0.30261375034043386
0.3339081803888854
0.29927555738632494
0.33458076933654307
0.2947522445494296
0.3486460883530831
0.310558252591646
0.351577986643197
0.2926934773971305
0.34708479514036494
0.30215628792362137
0.3590871078958421
0.2978056028001602
0.3662582996443725
0.30222551816404436
0.3406635582552827
0.32042834034383105
0.361977748375678
0.3466448821581193
0.363669912445884
0.3614579128203047
0.3523230512522423
0.35781935574750434
0.3709567465958016
0.3954389011807454
0.37890034652201426
0.3859070143834424
0.4248553681609509
0.505449092051697
0.5093490287331113
0.5259825159671101
0.47152527665357696
0.48429093437772985
0.4129137901244257
0.4643997878076108
0.4249175250614849
0.4592700954594453
0.4482752034007609
0.47356847955204656
0.47082322926992004
0.5330516804897664
0.6147706917931963
0.8376168174204915
1.0
1.0
1.0
1.0
1.0
0.906790037832495
0.5429059025170677
0.5500003933293538
0.4763977618579471
0.3833690827163861
0.37592177533134985
0.33781471092043047
0.35752832425019754
0.3255677602849142
0.35841407419225185
0.3184770551718275
0.34967152267069634
0.3309298279339764
0.37264835966802645
0.36233441145638096
0.41062111343186214
0.40069730480986065
0.45202005146382424
0.44529919251186
0.47204943762242146
0.47093976225262074
0.5323244003060094
0.5559356461207866
0.6122730448383474
0.6702864377158118
0.7206804137878496
0.7825973531078534
0.8317243390527
0.8905249247591609
0.8804980684564294
0.9641658112916562
0.9295570355020321
0.9411234254393758
0.8198694179819139
0.761686018952883
0.6396960629090558
0.5967158613465917
0.4881452966281974
0.45622400391294554
0.3971055574604224
0.4088383183805181
0.3547257052822777
0.3870753376345795
0.35464525306742517
0.3716875697802933
0.34617106425269817
0.35629534122891227
0.3481455920017951
0.3732675914973541
0.3697404785144294
0.36285380302931386
0.3787195482679278
0.3764137728948197
0.4076491453902178
0.3723966319685178
0.4048501785412869
0.35997675585699695
0.3765572908965353
0.35558434634343394
0.37033998053528655
0.3432575843130082
0.38442651160187974
0.3368985356871546
0.3689157296761751
0.32137225408781384
0.37821586561554316
0.340886245782779
0.3714687820600269
0.33828226243573656
0.3809102154742116
0.3547587878616015
0.3615383482124678
0.36110721762916026
0.36502735591348595
0.36812895218292463
0.3555081759525717
0.3645778088404946
0.3643638358190783
0.37284402917050874
0.3675275896058325
0.38944479815783917
0.3569346413363469
0.3913614459249008
0.3448372253728782
0.39494817687866834
0.37776838678224933
0.3906772139989716
0.3639534931349019
0.40425424447955827
0.36123935560931003
0.38997251024034024
0.37435628803911375
0.42075001915398974
0.39024482216716827
0.41224949192168436
0.39503484449576487
0.4044910779458989
0.39935256389819873
0.403369487803376
0.4017568975849504
0.41371717388847473
0.4219778350250916
0.41438158085073196
0.43511100885955534
0.42729304088874837
0.4444332476817885
0.42512973875911353
0.4636567723867497
0.4319261728373986
0.4727753109335192
0.43847582318084555
0.4891086823575712
0.4524591515669563
0.4719636957482073
0.4464642705381701
0.5343882335287172
0.5276966579720885
0.5480332828330633
0.5089031225310336
0.5136009601185452
0.4585650855020643
0.4410731579046282
0.4507665326336667
0.4696651648943922
0.48315707310996314
0.47565844669806295
0.5089766148544498
0.5168660934125617
0.5889705416890314
0.6898764289022756
0.9855248236902096
1.0
1.0
1.0
1.0
1.0
0.9026580656007797
0.6102278260137008
0.6234752312130815
0.4913950741108586
0.4607684047457317
0.3691590014399314
0.3764919185053296
0.3195049039545349
0.3367997393206529
0.3328261465510356
0.34776170988675076
0.3384210207577863
0.37759957757995444
0.37428813253132337
0.3831786675795207
0.39917391122488455
0.42061218438642384
0.4457221914411666
0.4450630470565895
0.49040013377671376
0.49342911451203275
0.5748573230917255
0.575265838532893
0.6444758527737885
0.6496763379876895
0.7367610897657552
0.7243138155661587
0.8023435927242322
0.8088577199835211
0.8975429574470108
0.8861596952218151
0.8967796491633013
0.8515750046369519
0.8093721974014206
0.7154279514498754
0.6416804645936551
0.5582885175132795
0.4865892154450931
0.45661220629245863
0.39978847429951425
0.38525217323828853
0.33740134694049057
0.3546679918542438
0.32165192037376783
0.3409711246542226
0.3058281615184928
0.3375920240896152
0.2920768101752956
0.3454703704545402
0.29822514761231467
0.3353343521805418
0.3002078796800173
0.33632648184538044
0.31157959381406
0.35274878481514715
0.3192776267166678
0.3589458534878479
0.33803892391994184
0.3670616061577805
0.34022997760485635
0.351495156854335
0.34981641892951604
0.34499472715981155
0.3516495884211227
0.34561603159893844
0.3438998391417042
0.3217413707323312
0.3408751385010572
0.32424169410159465
0.3422061413578059
0.3133571794254955
0.3457989508836201
0.30524886179873517
0.3326290995024196
0.2921122999958886
0.3430263420866721
0.3005900950376666
0.335474932436698
0.29969174201707877
0.3289707400036862
0.3032209592315017
0.3437623692502336
0.31664277509497984
0.3353292453443769
0.30856391088706187
0.34929176245726196
0.33637531067229887
0.3433885890030666
0.35203619676973663
0.3607351446475812
0.35622952323042834
0.35603496068319795
0.3768997453180792
0.3566307600936443
0.3773072578270285
0.3604415001506721
0.3899577990541202
0.3544254437884504
0.3814692578776295
0.35830526409234154
0.3946053966777775
0.3642507576191452
0.40437976606074644
0.35981683807574927
0.3898655971024693
0.37406672124418705
0.4035394190211112
0.3842598080100217
0.4015877571645466
0.39569694764598984
0.3889607296358837
0.39642440126077794
0.4087694908324949
0.4184290123942326
0.412323602476769
0.42928309509305496
0.41772740147494564
0.4201590685652752
0.38666849649940654
0.43415955748517243
0.4616421096154458
0.5163831637949023
0.492697260875941
0.5220461654838554
0.46890892468493195
0.4788002377291923
0.42308924693039673
0.4519092181929484
0.41386414040858027
0.4454706341682795
0.4240884982760919
0.44789286436844444
0.43612549483455637
0.49045634546112993
0.5011306872881189
0.5788738777861088
0.6933519429723788
1.0
1.0
1.0
1.0
1.0
1.0
0.637133546229338
0.5462926554001782
0.518762076761441
0.4615400820419566
0.39463736929322935
0.3934048689446067
0.35135084990117127
0.3746001474331623
0.33171965392174824
0.3670811324192096
0.3300681979983456
0.361315410704277
0.3404652139081811
0.3722005154707236
0.3488476991044507
0.3727242126451905
0.37493568621407675
0.3955398583665528
0.391388772817847
0.39839703146366456
0.42787819521507
0.4402820503134445
0.4675598401726543
0.46153737964949465
0.5210097678108284
0.5269502885858709
0.5907387201140801
0.5985517867815544
0.6698316141867012
0.6737031637215043
0.7419734217124743
0.7329711449138234
0.7828046516016679
0.759934988480141
0.7668992720212744
0.707685457696884
0.6622888198052755
0.5720622510684561
0.5353405058694093
0.4612248913473482
0.4356026617491214
0.39082527428313335
0.358233694083435
0.33749796073394006
0.3255023214273449
0.31788005807403913
0.3038190741326975
0.3144763823646848
0.2989213196768524
0.30829280396132036
0.3034585866769094
0.31708921632698284
0.30719153074644634
0.3328919173041592
0.3015384381712228
0.31535552210354856
0.29868642381707666
0.3391836947274184
0.30523444621294044
0.3318109987876417
0.3109859921230379
0.3373607677269992
0.3147075655877639
0.36382477308052563
0.3203553283544223
0.34805663025920147
0.34813775398907454
0.34835494654871235
0.3419614063334111
0.3500367316023706
0.33828917964739075
0.3446341914867145
0.3514946296840138
0.33607628745374907
0.35917669967944577
0.3423772701005709
0.35675524805972547
0.3309351610354959
0.36577888977564266
0.3450396775439295
0.3777999900753014
0.3373358551768765
0.36325878753034385
0.328701109815171
0.34769954917385204
0.32952383177969835
0.34991102913925737
0.32539591397447654
0.34046003199233493
0.337908440399314
0.3519145039321957
0.34106770844037676
0.357132724857806
0.3446168034977431
0.35326974751958967
0.3687694105310083
0.36382943579062105
0.3600116185967407
0.355751872020564
0.3790124073807758
0.3521840967064765
0.38073603404325135
0.357840948411686
0.37252850951714434
0.35113513864020734
0.3782559101975806
0.3386033491603341
0.37820713724962784
0.34440690698383974
0.3753515531724368
0.3395240973437448
0.37297539247476685
0.3506997779381903
0.37440180157978287
0.3567349620814923
0.37031079510359693
0.35941585605306126
0.37328946217464076
0.3668034401103911
0.37194658016312754
0.37053688696982057
0.3651305250242603
0.3494645104937347
0.3649813685208276
0.4110188325062093
0.41682599729754105
0.4388935804687367
0.41675390331191703
0.4213260450156063
0.37269759135479347
0.3739733026621411
0.349795768359776
0.3884595658618947
0.3528288133572749
0.37905847439282836
0.35984570565493945
0.4097439467984298
0.411315205608972
0.4786149082165293
0.5280567096751284
0.7196867140855869
1.0
1.0
1.0
1.0
1.0
0.7195600113096766
0.44962183508943826
0.4478504419955982
0.4118225168478366
0.36090340499738305
0.3617579998706133
0.32330452007587385
0.32325791475902604
0.291340067930612
0.3093911340701907
0.28050542252783117
0.29730222988108024
0.2798262764044195
0.2969064020156145
0.2849201302957523
0.3223131094266453
0.30596398154762444
0.3286094851604308
0.34007157592463644
0.3640502385066151
0.37395065423235785
0.39137626301377776
0.4109196234052434
0.4418005375316305
0.47639349936731457
0.5066147511003454
0.5439119383705882
0.5726758932163587
0.6182485185301079
0.6165393700961614
0.6827493441698561
0.6806207096191328
0.7182855468265383
0.7065036250310884
0.709274418990482
0.6520986413007457
0.6209666144808008
0.5473074994630707
0.5093150154109547
0.43827046058240615
0.4226322089400609
0.3662639350414867
0.3627068888892086
0.3345708049300328
0.35171245493585157
0.3238221976956867
0.33997887632287316
0.3208064966291936
0.3261735691511752
0.33016191337167494
0.3343618725930156
0.33709373902921574
0.32445469610557554
0.3528565230941029
0.340020593981735
0.3557830027395995
0.3381758372868176
0.36641204851994286
0.33492147885300383
0.3736202756334933
0.3359222844700242
0.36836693106568863
0.3482314727119578
0.3713602777889224
0.3432996959497069
0.37624443515160116
0.35145411831419826
0.37080430338189857
0.34339438325988647
0.36196071351546194
0.34864311143063303
0.35867817612672387
0.34563250684874214
0.34602689790911034
0.34751990308287223
0.3472953913783639
0.3614135503902733
0.3458023578428505
0.34742094040195753
0.33569290541886426
0.34394013450041766
0.32836142192340184
0.3388474320842404
0.3163183401260642
0.3401977269579009
0.3195464727894204
0.3476261573667373
0.33228086950950014
0.36884806817402127
0.34399513428878387
0.372041058853941
0.34341952801195486
0.369250181737468
0.35349173732084743
0.3689343385657472
0.35329608296248044
0.36308705476863234
0.3597687580301259
0.36460180337796294
0.3679452323391881
0.3584906509165197
0.36248136714218254
0.34521577771556
0.36731202037317723
0.3429948574410518
0.3534700740389244
0.33638012685845925
0.37782272749257995
0.36155677304789596
0.3838904459865045
0.35992837638609254
0.39224328256834295
0.37003347273542514
0.39991084555282264
0.37140797237452905
0.402603827432549
0.38583275060042677
0.4051705312760731
0.3964107164647758
0.4188352632427895
0.40993681875974247
0.40099697363257436
0.3955432252277403
0.4299332694036272
0.4487099179726976
0.4523548253059764
0.454666606199305
0.43407530537764955
0.4239743281112947
0.3892777155907896
0.3961417109880577
0.3927783445417414
0.408975251587568
0.3947544153167993
0.4233431487827901
0.4108866850418199
0.4590833018199939
0.48303060787625424
0.5655220896216087
0.7244244292476711
1.0
1.0
1.0
1.0
1.0
0.6362089630833526
0.519609388392005
0.49662465190612065
0.45161320087733914
0.428527323638838
0.3957883761146377
0.39551249005636613
0.3796987590217123
0.38143177085903884
0.3742586915229147
0.3895575714434344
0.3716355581447376
0.399933813075926
0.3775707297837633
0.4077172951345034
0.38854178983875226
0.4230981032914727
0.40381296661459143
0.44680638747822465
0.42644168868516646
0.4549979284166721
0.4570046432261531
0.49973733854787605
0.508786703883273
0.5497924995785081
0.5716805746986504
0.609058096644162
0.6161999403697775
0.6494809136918477
0.6793510780193315
0.6861923828512749
0.6994774767036567
0.6765929281247478
0.6437524517522768
0.5838601980295424
0.5456127794765981
0.47739472008228423
0.4556127197390797
0.39886426101985595
0.3960188566991788
0.35594602757899735
0.3725621260870909
0.34159058435713946
0.36346741055674103
0.33678218031464746
0.34865434560751163
0.32917743683946893
0.3478980647500397
0.33028028964066786
0.3451747627704472
0.3388193742096619
0.35601254097317503
0.34130382500438744
0.3554776779510552
0.36302320365896606
0.3534629724527863
0.36513175871412773
0.355148336120243
0.36292858126883665
0.3500788026406256
0.3595581601010758
0.33939510312029936
0.3646005776919904
0.34563432916216585
0.35774415610911636
0.332896323458361
0.3598330679959866
0.32846124696324625
0.35036947040625926
0.3318853581381477
0.35197379826614217
0.3346384676622531
0.34751351842737144
0.3438532706714361
0.353226906477378
0.33987096214443063
0.34909324709993045
0.34005561649394017
0.342207052777475
0.34647791833887537
0.3452310440402771
0.34443158703607324
0.34960831404824744
0.353062810110155
0.34041677201512466
0.35824871192519236
0.3433030570175313
0.3562090938238314
0.34101228894448193
0.35703599530641045
0.34534938301272333
0.3745960245034622
0.34445776837121334
0.3764706375604684
0.3531839283432396
0.37638177549730695
0.35538915401758525
0.37414724085197487
0.35810887547526743
0.37322020009670764
0.3597524644450762
0.3722649481143579
0.36956432708722364
0.3720736246432193
0.36960849651632416
0.3683921257119776
0.3711331192502251
0.37505680325845653
0.3945336970647417
0.38600697818608287
0.3992658219317729
0.39738724863524233
0.4157014785142342
0.3909339492535803
0.40931787352272764
0.4178146714639107
0.46041618937540985
0.43927433743471767
0.4591051510468042
0.42014419222490496
0.4316686147024725
0.40910436172224535
0.4164761000395895
0.40662256451002116
0.41685888851259645
0.41962521427744137
0.43308914227205114
0.42676391984311657
0.444713307536097
0.49277773453532026
0.5635298720895608
0.7644333914591399
1.0
1.0
1.0
1.0
0.736821999907731
0.48607391024260344
0.4595821204253947
0.46862572044801976
0.41879696462512106
0.4246355832544674
0.3798441413018766
0.3965216263627692
0.37146195935240167
0.397174994838885
0.3676044527459275
0.38890630128097187
0.37565836820787735
0.39067271584089036
0.3811450400008691
0.39014312748913743
0.39407386755515567
0.3981757869210961
0.4115447119443208
0.42692717245904604
0.4375123310661838
0.44896668328353506
0.4684001160648628
0.47781447816017836
0.523231662452466
0.5371847157919729
0.5708607037336959
0.5811527801524035
0.6179984086195208
0.6198050474861764
0.6593544786059293
0.6553352641228949
0.6598022323578929
0.6111001812355213
0.59926346331981
0.5288795012736343
0.5031184041845924
0.46343669758002504
0.43978081531627966
0.4061418713977374
0.3943937145594518
0.38553379285986367
0.3740547858608013
0.3697562910956005
0.3667509352493875
0.3782654787415184
0.37060457216619935
0.3772728906042272
0.364174796795912
0.3678641351747877
0.36595089445183626
0.38201120215663226
0.371678065130512
0.3925402533049652
0.3657959699585339
0.3871729340858687
0.36869934889763345
0.3892003093378008
0.3711833304380777
0.38403585348258545
0.3687199668720812
0.3833382339114662
0.3752251381595266
0.39237926878734913
0.3810901988261902
0.3908541278001771
0.37954278683767884
0.3849494547114504
0.3894452855665215
0.3847858111408456
0.38676247492590965
0.381641244101687
0.39323717576878375
0.3818899498863244
0.3886114467923644
0.37830864353937493
0.3866824062826747
0.3760999371459546
0.39360696724671823
0.37541755978092556
0.39465964226886213
0.3649410239252197
0.3924029951673507
0.3758007256570161
0.4001498107610236
0.3829212708133551
0.38999196752420684
0.384176933951598
0.3981640383621753
0.3860315479361467
0.39483094827954107
0.3924748515249329
0.3940883918970425
0.3952580327662595
0.395946382683393
0.39620011641703756
0.3981257369037835
0.39864443870705896
0.3900381204163562
0.402282803291512
0.3869392168406444
0.40481390163538655
0.3859634178532413
0.394052047835973
0.38811566198080893
0.40496277158988675
0.3911379755126707
0.4087441929834813
0.38660678147744487
0.401775034865155
0.39041603430674277
0.4016320675958095
0.38672603181236437
0.4052911580265189
0.4044787489664727
0.4132334449260483
0.39827752788135884
0.4207010661084755
0.4446869987726646
0.44907543512919246
0.456042580609624
0.4482337710538033
0.4437630837643483
0.4212441269398883
0.41905469675131474
0.41039550609979114
0.42946294736003504
0.41438588717609
0.4324958337635083
0.42619313891961746
0.4416511492561641
0.4451149107032781
0.5066790107869996
0.5703182387103723
0.7930294649508987
1.0
1.0
1.0
1.0
0.6660585398549314
0.5002592635966272
0.48669026773617097
0.4474420085578449
0.4213899633576519
0.40910041573642325
0.4048823454580221
0.396950860277453
0.3949376866952806
0.38309572360994615
0.40209872553967696
0.3900850577688354
0.40887792985740135
0.39299045699357904
0.4110969184369674
0.40476061831361215
0.42694200711401925
0.41551124209289386
0.4413740779784616
0.43767528407086564
0.4594389682308644
0.45386720641264694
0.48253540682320173
0.49550680927067037
0.525651906791372
0.5354382001742704
0.5677684023385605
0.5851219180852592
0.6081574697887128
0.629921183937418
0.640490602505103
0.6456542411974973
0.6256420793126358
0.6074191571750547
0.5637574108314503
0.5341734260455702
0.487675954371657
0.4664629174165995
0.42693120293316056
0.42533008953756807
0.39868883811861056
0.4099222727439439
0.3814571723814244
0.3957519957228143
0.37425368985934937
0.38077522684303095
0.37173045715129416
0.38739790157542714
0.37585861442953705
0.38266677662113935
0.3801768527308905
0.39292787330919643
0.38779842106605356
0.392785349666308
0.3939151334601732
0.3956824432755652
0.39639419407895826
0.40173069182389504
0.40582157188184614
0.3935722880916702
0.4051815693891189
0.38629465976579735
0.4035092983282883
0.3871126585440292
0.3997635271985106
0.3794576296738349
0.3955964467233918
0.3840962221591222
0.3834887980837085
0.36379038391122437
0.3809679136883788
0.36316398187002846
0.3788205896589928
0.36660164338984574
0.3695259833775947
0.3653418657902738
0.367835141648763
0.3626091463699662
0.3639463245745098
0.3611669982774791
0.3613087468821899
0.36477662435129427
0.36307668247225733
0.36984725561671283
0.363645080434183
0.370973948155805
0.36689563901596234
0.37939229570422384
0.3633121485732197
0.37382119685949433
0.3626125396806995
0.3745544695938425
0.36366981846385904
0.38202152171199383
0.360918206776805
0.38061267933272286
0.37296168523498935
0.38352599069588533
0.3730852493866941
0.3816852051205907
0.3749065476835553
0.38745739429528453
0.3911286764833094
0.3905296331248482
0.39044457223414514
0.3912256029112532
0.40169372484216986
0.3949481012803967
0.4013276227135571
0.39543319886354744
0.40541774595407487
0.3960078304685858
0.4113908045875575
0.4019182980680768
0.41614116247032484
0.40256503394517207
0.4231409627057155
0.42604376085570783
0.4516466590416652
0.4426599397361447
0.45841072182887094
0.43604743330072093
0.43916528758278417
0.41447477566661695
0.4128658412057383
0.4141789467914158
0.41637548732218255
0.4129021006746645
0.42459678181640825
0.42920111151192997
0.438926277189303
0.4637256547781413
0.5071281956588584
0.5884260529337284
0.755455169430794
0.9829460755710059
1.0
1.0
0.9684772507650786
0.6656618454982647
0.49153869262082556
0.48853878577040916
0.4622261119635578
0.4523891544540655
0.41179073919420733
0.4202053361166029
0.4007003976780522
0.4090109498811231
0.3991005688595886
0.4071778238199448
0.40580522405206754
0.40507838624679327
0.4001887808024266
0.40754026735677923
0.4120153637277443
0.40823664716456076
0.4174827659578854
0.4146985274881626
0.43427969060475247
0.43648668248886563
0.44961590322226785
0.45464230347416484
0.4857797481733683
0.4873790565921631
0.5162458219622624
0.5257273924204359
0.556864501223084
0.5589992833105669
0.587758178887061
0.5955979608008074
0.6260034570265816
0.6128506213403334
0.6269829510461833
0.6010872129354377
0.5799672195348899
0.5459979055202177
0.520743434377229
0.4866371390532378
0.45885640008208944
0.431834089562233
0.4180028050214403
0.410851391255457
0.4021673166549141
0.39932495313205185
0.38679759696627175
0.39811189083064413
0.3852425903095674
0.40087510438870105
0.3890912682003962
0.40087859917153457
0.3894167643771206
0.40878896683957383
0.39438014306443064
0.40738423738586416
0.395451519634238
0.4103407647597413
0.40064032134209693
0.4135992186931096
0.40002513925172173
0.41144644560826366
0.4017782889129583
0.40644786354002116
0.402509836964284
0.40503508576984865
0.40706774488380226
0.40487785623575273
0.40908014254274255
0.4008889852627234
0.4120293204346817
0.39988975919266423
0.4122537850167018
0.4086777298895651
0.42039340108785855
0.3951894677260624
0.41681759960277975
0.40263930218233873
0.4185280336439988
0.40165616665142406
0.4209584232687374
0.40606167030299734
0.417805144235256
0.40840719456483254
0.4211400949434568
0.40857336640034186
0.42045350788115854
0.4172989820364384
0.42195479021704224
0.41237581539747836
0.4187098381190612
0.41378017909120945
0.4147931499258548
0.41923314360445
0.4182744455700952
0.42051420635145786
0.41571221700387084
0.43231004752296326
0.42266538948245796
0.43451960168657555
0.42541425774274816
0.4404068652956482
0.42447391257753464
0.43867671077029835
0.4191344460237162
0.4432296124479461
0.43245099248736407
0.44149943536287956
0.437482271243423
0.44270227952108315
0.43674772885701946
0.4469785379949992
0.4352675659085571
0.44001076119788474
0.4403453219784545
0.4394115975110102
0.43870388046134556
0.4441483558719769
0.4430104922940307
0.4403401252328263
0.44526077557144783
0.4432478727287547
0.4694712180452802
0.4730923431123813
0.48536971108597865
0.4719749657156739
0.4750374022038663
0.45646180661250585
0.46618402440776785
0.44927159464921884
0.46216770573652555
0.45201024681161206
0.4676857641462423
0.4584570495515116
0.47597249907930966
0.4783812109437905
0.5006022516331585
0.522622254645142
0.5735552277576689
0.6773452844312294
0.8613333270976782
1.0
1.0
1.0
0.7674010289991748
0.5889585354964842
0.512217101201488
0.5185317644040686
0.47747051842712906
0.4737965363098501
0.4456675910273007
0.4501925515808665
0.43296412219173475
0.4431705580283086
0.4305463954018619
0.4395081242060104
0.4289227956479683
0.4469170619895174
0.43728357848739147
0.4450894467442943
0.43916927637598635
0.4499199284873228
0.4458475638119047
0.46012679149169095
0.4492975918928133
0.4632386069281937
0.4734142213132129
0.4907602196872439
0.5013016456140281
0.5145148962009009
0.5358530200300842
0.538584668238133
0.5616042592672332
0.5738018948836539
0.6025801097132897
0.6021728213428972
0.6256419542319918
0.6216040050322944
0.6271786886690651
0.5944007034553304
0.5839508432508891
0.5428930749655494
0.5254194778182275
0.4927586913650129
0.47826467278510376
0.4536932688997215
0.4579492329005803
0.43748673323911424
0.4365082151372425
0.43041177329992414
0.42476721763342634
0.41918462172385534
0.41749934180040055
0.4229830765514439
0.41985397869245294
0.4246652186576586
0.4182161339716357
0.42464178050995616
0.4173539984686774
0.4242189410335202
0.4100675729044254
0.42318693187870915
0.40863977111124505
0.42722112049688155
0.417780051957583
0.43278636548567617
0.42202257357127315
0.4390699154313268
0.4261633036004454
0.4396178419516595
0.4281313916205364
0.436005567008228
0.4281705729166892
0.43473027055137675
0.42845993223271844
0.43083912040393313
0.4298880941797232
0.42928015661353547
0.43218915374276656
0.425057979123148
0.4344554790697083
0.43188129713263007
0.43477765995200734
0.4279613495708864
0.4360747933455394
0.42238809165107244
0.43810845975372537
0.4254926421719363
0.4394665968664926
0.42503973816040863
0.4376134007804081
0.4271517432943372
0.44446542912641485
0.4329454438119308
0.4390982410475147
0.4309320148820814
0.43505401389247017
0.42945820730224293
0.43045520191046427
0.42919601692312004
0.4314105621436742
0.43123635520540293
0.4333932396913812
0.44221838791537066
0.4312131357215702
0.43781705470584775
0.43446163892033984
0.44096064447875233
0.4313097949075521
0.4462625923225822
0.43460789974833836
0.44677468692454714
0.4337436890125989
0.44877361397556126
0.44339006029075867
0.45666925582679846
0.4445093320158418
0.4624371257075829
0.4438498914552868
0.458795059736682
0.44648989601786865
0.46413456129271147
0.46608319860713276
0.4853157170514392
0.47372790339061827
0.47554877213978825
0.46697080777450595
0.4560727935543135
0.45580778272403
0.45451961858318873
0.4610462593437302
0.45618834676776476
0.46403830762672993
0.45827394478470457
0.4698336546104015
0.47230223438094676
0.5015857329209885
0.5349845833393992
0.6024974312839412
0.7445442530047354
0.936200007924682
1.0
1.0
0.9715507399529157
0.710008106633177
0.5252192743041169
0.5118756964223102
0.5022185448204903
0.48595422416683415
0.4651119365425826
0.4572063311963205
0.4568868556052908
0.45310504341616153
0.449372999816692
0.4469603606731602
0.4539634106361337
0.4426712181501501
0.457280964217688
0.44786997705964043
0.4670629407460273
0.4548484354279122
0.4668368289876191
0.459088855338705
0.481918266864262
0.470089465129578
0.49710412322606173
0.49115794904833165
0.5218102272520919
0.5171762675305654
0.5463519139436649
0.5576352522359755
0.5801323627835253
0.5861625275310043
0.6107007938456827
0.61093562117788
0.6291222356091393
0.6278293471589536
0.6162678433985898
0.5923184309271632
0.5662739414241115
0.5377931180680616
0.5077472302302295
0.5007931498216408
0.47314180427552427
0.4702082438111315
0.4478840436157232
0.4614921882128211
0.44321136818615514
0.45320223606542986
0.43886419964894846
0.4494563775388702
0.43807454396770124
0.454532109484274
0.4416952479584072
0.4532887670601456
0.4458226121974703
0.4604537578390008
0.45034028341541826
0.46343418258245556
0.45920158820378176
0.45931171499179324
0.4647973174169834
0.46417643503247186
0.4669917778431138
0.4672614164120314
0.4715790883041239
0.45801369350839216
0.4708676961397479
0.4606517642568219
0.4666854814831948
0.4607631100266746
0.46404240839695515
0.4559460236385185
0.4675631393132047
0.45565130403229415
0.46755062322101903
0.45604242861915373
0.46551510239923627
0.4573261425555376
0.46209441235651205
0.4542816429344634
0.46948188274053015
0.4601040406569691
0.465834529899413
0.464383493119672
0.461565207645108
0.46600560411659603
0.46739533860175575
0.46996272348488183
0.46649287211759827
0.4747479148106337
0.4667148638548575
0.4714408996217497
0.458775460887528
0.4784670022049105
0.46621713654103125
0.47476520443519143
0.46660571052584626
0.4842696320191151
0.4735203365007144
0.4830680337846459
0.47379333998371076
0.4905779815217726
0.4768521500839665
0.48855962436451084
0.4776225770211579
0.49096868065008226
0.4846922668711836
0.4983888864882329
0.4917505985928689
0.4958756373194471
0.4946405084861317
0.494090378867694
0.5053173766642354
0.5015286222280754
0.5141399671542246
0.5010907046238375
0.5103673502952649
0.5185194174685297
0.5375732169430086
0.5331956339306549
0.5393575515223636
0.5264504022428421
0.5281506019025922
0.5083927743180762
0.5195346730984147
0.5075273410771214
0.5243457940677833
0.5128071241423627
0.5255392198008014
0.5207612311052443
0.5389956806369219
0.5527458376167506
0.6022240947747034
0.6695291397873234
0.8251100818638755
0.9810633856111555
1.0
1.0
0.9532816018209906
0.7293892732157934
0.5966370038101232
0.5812710532916701
0.5423635516314167
0.5245313315753256
0.505530316915949
0.5101878270441349
0.4924336725581557
0.4985940518271974
0.4824210353822943
0.4985971655197359
0.48744095915312713
0.4990870624099354
0.487996670658258
0.5020573181922774
0.49777904386946625
0.508931949778086
0.5056397375584732
0.5250324948516334
0.5257687359882359
0.5350698089421684
0.5429059205099093
0.5514340634319334
0.5674382529113111
0.5817813043367218
0.6010244700564291
0.6109395269442058
0.6376096248154217
0.644867530742778
0.6643825025646878
0.6617153699196436
0.6702366629890104
0.6506273633519759
0.6374098399344976
0.594668829520603
0.5740492348968416
0.550411665653182
0.5328281072654596
0.510010108273125
0.5057698675311871
0.49015076671761787
0.4906305504198431
0.4761418877458297
0.47659214082876505
0.47563606190858765
0.47694661807284017
0.47881271037475936
0.47312904010160084
0.47265999008018883
0.46752363286356563
0.4719273913684929
0.46868674774586455
0.4746105546118349
0.4627474762624585
0.47203006630635763
0.4624077236587569
0.47501526093545704
0.4613230779940568
0.4785768996061976
0.4658506339510785
0.4811316252360635
0.4671655151712019
0.4773235341380732
0.4629455767095494
0.4748049529714005
0.4684017927752051
0.4763405300150523
0.4629696756352999
0.4741595742260219
0.46704842952193326
0.47156314528773746
0.4678177786436809
0.4664138764415953
0.46396615300316313
0.4657552898335651
0.46881442712040694
0.4633219158217917
0.4725577371191144
0.46411556005501203
0.4758968099298694
0.4611608484357479
0.47443831431661065
0.46497968430553616
0.47430311956229093
0.46766364913660335
0.47944527825406247
0.4737872157763882
0.48142100514930536
0.4688722255640334
0.4886575527040704
0.4729784448971521
0.482463244370891
0.47512658860209933
0.4838299372221212
0.4754106529877228
0.48323691966140514
0.4828347292123653
0.4863787998336149
0.48473905107829196
0.4890747171844542
0.49354638777270826
0.48450025172962263
0.49717594592983944
0.4915330992295022
0.5011196005433595
0.49085234105645215
0.5009914409475433
0.49764800046457536
0.5091311821940223
0.4994664748593644
0.5132843959798874
0.4998809498256205
0.5003508120520539
0.49032147213751986
0.5218535723710355
0.5245674125152118
0.5390891763680328
0.5308353225456726
0.5298617643598642
0.5165395743721654
0.5153411909078962
0.5119520747671313
0.5120654567080805
0.5174200532709016
0.5104026145201531
0.5185930159377561
0.5208711822342097
0.5329863228642636
0.5370245893681116
0.5850142165660388
0.6236298613893104
0.7722114030345357
0.9363314611689215
1.0
1.0
0.9515246392296254
0.6866786935880946
0.5696978914586263
0.5533273077627157
0.5288021300726132
0.5045820993298554
0.5022675959886354
0.48708315006769454
0.4926374506407427
0.48408961067326617
0.4861626284207178
0.48242055686893554
0.48210287576368777
0.4890546318371241
0.48825236680212464
0.4927240791482932
0.49388019561644103
0.5064107933405295
0.5012066556827343
0.5165434209232982
0.512072859840015
0.5328589718340099
0.5326291451121018
0.5590323521560541
0.555809043229857
0.5882007890886786
0.5938543299628309
0.6252042993766531
0.6339311318316506
0.6622417523750119
0.6642757003826334
0.6854386833487814
0.6759955187464742
0.6699727864955115
0.6338656938885914
0.6125451065092109
0.5811730657273799
0.5577122635610785
0.5398156729490444
0.5200627130519704
0.5180855755397229
0.5016023391807118
0.5016818666871714
0.49465582937418995
0.5029297712981398
0.4895886055655099
0.49770568182860647
0.4984645963461928
0.5067739149180955
0.49977969296628466
0.5110036955553507
0.49484753324650554
0.5061716145302195
0.4959992145286054
0.5101756146626933
0.4968767019748691
0.5116321483376314
0.5018702652962549
0.5076425132727251
0.5058807352290728
0.5042734332172737
0.49989593231581575
0.497912629967459
0.5016191440377784
0.4973847276320475
0.4996300684265907
0.49346909435171726
0.500268835150129
0.49040535962963283
0.5023033132482475
0.49216666291255473
0.4984255518965317
0.49265247342125607
0.5063253910461096
0.48841179133629087
0.5008995922704049
0.48949869179646593
0.5035623678550056
0.4954175966618723
0.5039899396563607
0.49528625022369877
0.5077586011269463
0.49616476288276834
0.5053743305199474
0.49810373166378474
0.501914271686785
0.5024607858093122
0.5030528289673628
0.5005812901247674
0.5046724379647248
0.5038578241640044
0.5002461008506982
0.5086068637749206
0.5023606233376968
0.5038671344620129
0.49186196076526817
0.5065973347504753
0.4912774544110284
0.5078703349406333
0.4863513953375719
0.5077029822304115
0.4939456003066801
0.5076548973748317
0.49409278728509226
0.5072588816075833
0.49586534451963526
0.5040893993831445
0.4951490488414992
0.5082818101354288
0.5012920756100759
0.5022864774785136
0.5045314510235863
0.5071983552599184
0.5098684044487872
0.5010728032277905
0.5161558384031746
0.5263750896940039
0.5410338481757104
0.5370032880601341
0.550396010276754
0.5289782468410855
0.5358810029586648
0.5182465066934625
0.5359501457610156
0.5175200489433263
0.5357780006505263
0.5252335313219139
0.5434314659226047
0.5396161733657111
0.5665260911591732
0.5863069163117081
0.6538543438376841
0.7746106707985536
0.9692836975961278
1.0
1.0
1.0
0.8126507115399713
0.618637081348286
0.5720275522284062
0.5674067636187237
0.5233533054597076
0.5151536786750837
0.4971396244870082
0.5001237384692491
0.4822648668435724
0.4908622116639253
0.4767734589741132
0.49277700893710286
0.4780125853379018
0.4917062947272508
0.483698193396505
0.5018109410761529
0.49319829510552654
0.5127573642048585
0.501669438560917
0.5187460635908601
0.5120186950540349
0.5309771830325813
0.5425921415884309
0.5615477848090387
0.5682842798046452
0.5860830396689845
0.601149303377708
0.6097331208504067
0.6312603023950671
0.6426185936870492
0.6590272529195195
0.6705721169851621
0.6901808751361487
0.6832051207584985
0.6818699108636067
0.6535464798427537
0.6347499085309443
0.5880700947412183
0.5725877678256232
0.5374787452268214
0.5275076028759409
0.4931976288528669
0.4900158506650033
0.4718698411644988
0.48175564727459086
0.47493255698376535
0.4735052430252398
0.46618901187898854
0.47139115968906814
0.4712954187608722
0.4696518682802999
0.46771008729212094
0.4644727127007555
0.4726433057436744
0.47163572667106807
0.4829593786571971
0.47738242258097463
0.48670084014223597
0.4765903688885994
0.489826462699863
0.4789187158823456
0.498218368712266
0.4834711084340074
0.4999497449610596
0.48729668476608606
0.49926598797116817
0.48206137979168073
0.4930739375437814
0.4851646541991558
0.48982161575119754
0.4803711068842194
0.49077540208519715
0.47761455611602466
0.4804959687403924
0.47817523998112854
0.4805805950258118
0.47878350023690047
0.47365214403464606
0.4760558037647404
0.4742908809959686
0.4767757496939806
0.47094068291604074
0.47668570276967204
0.46956679091533066
0.4824955449326375
0.4694473340816021
0.4901360275933528
0.4780154343922737
0.4938012056101053
0.48101981756487777
0.49728437823667965
0.48764508767313525
0.49386683302717094
0.48431761562251585
0.4976436649515038
0.4940947740244884
0.5026417492401827
0.49717924917175144
0.5026892210798797
0.49955755929280354
0.5002301465205211
0.5021848509166197
0.5011451430769135
0.5095002404045336
0.4988693063914841
0.5048446046624248
0.4954409399595943
0.5062218335529812
0.49369162508557096
0.5027980163269152
0.49471556569608754
0.5047335849332766
0.4896177015827332
0.5050705860672013
0.4905174857485896
0.5078140682093325
0.4952371160739452
0.5052365061991342
0.49499485038866037
0.5134319182214797
0.49412636799979726
0.4980131162770574
0.5073383389562148
0.5372590562455812
0.5380145374867498
0.5453483059868739
0.540835587452863
0.5260217230263792
0.519705896171456
0.5100050095925851
0.5161966795869002
0.5117186209979254
0.5265823650059396
0.5170642373264271
0.5432719933328954
0.5300178446068624
0.563436070736046
0.5819916793835765
0.6422323811915088
0.7333177347652331
0.9488301321161314
1.0
1.0
1.0
1.0
0.7866635362749962
0.6276796064458121
0.5899355071335484
0.567304507348025
0.5336155634629476
0.5125491796673632
0.500075596990978
0.48468750312401576
0.4856275363434026
0.4757788590461646
0.4923931116239175
0.47801685891625467
0.4878444626954844
0.474995702982491
0.4906323148457024
0.4826823750276631
0.49642455834036303
0.4886203088765867
0.51046189913173
0.49664256866512807
0.5285445005198517
0.5175193239835372
0.5364861990226846
0.5333696210439504
0.5640794869919116
0.5682065623270826
0.5989937012759842
0.6102524014349546
0.6355254693027963
0.6453960943969248
0.6689277981337314
0.6887609206824635
0.6996505039078772
0.7175781343076053
0.7062350451260568
0.7029975081476701
0.6771090554308798
0.6528452328531764
0.6075575646023847
0.5878648408920574
0.5445906199994267
0.5314298961278603
0.5015626909753571
0.49696932408958494
0.4739488301542053
0.4838191521382475
0.4763973825906878
0.4779520921833815
0.46453016093591354
0.4850532401468309
0.4670686254873285
0.47434840505038334
0.4650777636766327
0.47394322016539653
0.46740420455246623
0.47125926949483227
0.4691871346728732
0.4748700256005115
0.4769079924628429
0.4707868139716491
0.476403193225892
0.4585665987656114
0.47684731290555604
0.4610964445529911
0.4687872707837203
0.45768861497254515
0.46985543075505076
0.45540421381928525
0.4761897373555267
0.4598273841056827
0.4713976010791551
0.45315673481993884
0.4740789353914129
0.4624096928020923
0.4729208533775108
0.4590810403500664
0.4710186343648769
0.46173634730859714
0.4683066292355013
0.46455390985662504
0.4644587383241176
0.4688276720201957
0.46036811291574303
0.4671900977599284
0.4526169227009653
0.47665883757864574
0.45373382878190194
0.4710150567408947
0.4622902036524759
0.47500572205018843
0.4546578027300433
0.473951498233219
0.45290737078285737
0.4675614547082332
0.4608366870394889
0.4780719961345179
0.4623709106157368
0.4773673531127116
0.4648121984742241
0.4801390462692455
0.46920047791708236
0.4818357972199455
0.4717386476944922
0.47948636243207804
0.48438667620130327
0.48029229304820387
0.4880076194137515
0.4829662277449729
0.487900833839893
0.47843890341112855
0.48264838111842484
0.4776036218777236
0.49848207863373445
0.47803100340759486
0.48486240471640096
0.4684089630072522
0.5037624006267583
0.472616137608407
0.492195630548678
0.47578615629384774
0.49559609808440214
0.4816146880509091
0.5105280523804127
0.4949491873711237
0.5071819596499421
0.4887060979905498
0.49642715646379304
0.5155249544317075
0.5454622374407784
0.5546904422436054
0.5506835460690811
0.5410721517148332
0.5461653797223534
0.5277795132849532
0.5109454957435648
0.5202819456313125
0.5075600726264844
0.5236321682471364
0.5113957070796582
0.5398616524296763
0.5261450966162042
0.559423101112736
0.5688976004905363
0.6337587170414636
0.6978545157433731
0.9227698865292867
1.0
1.0
1.0
1.0
1.0
0.8657108136782801
0.6266262774164499
0.6313150428961
0.5914394813743178
0.5554876521760574
0.5204965940539149
0.5161933975468764
0.5121224854879759
0.5021177419113114
0.5074765025482212
0.4956811277712241
0.5196407762299219
0.5045439393335422
0.5174591066098909
0.5044048291877762
0.5343667444136629
0.5187425065553742
0.5474818284193126
0.5353405510251408
0.5716216106484092
0.5530987023211626
0.5809882001948549
0.5822147477708246
0.6123083134616276
0.6269327938632914
0.6545882247183593
0.669041670443032
0.7112255596220614
0.7275994359303786
0.7566896464483021
0.7804628719527298
0.7995557914230595
0.8180212623862415
0.8158475955879079
0.8275267049452204
0.7901338120577845
0.7626597807991764
0.6944718269709133
0.668608875743885
0.610238935459299
0.5873051045778717
0.5350453311228353
0.5388958048681673
0.5125841576990835
0.5262173954124469
0.5016875606078856
0.5091471772869827
0.4801714114277454
0.5072393345546277
0.49653888876786
0.5042908946305181
0.4980623869805205
0.5185576404835829
0.5168981524824535
0.5108890477101238
0.5034879878044752
0.4980801063379122
0.524539675203469
0.517044421044445
0.5298692663552069
0.502305268937281
0.5204186053163264
0.5020496343431806
0.5217917316360915
0.5004159611760141
0.5315595186039175
0.49851188668206337
0.5194943887450102
0.49752107443967725
0.5076533890113145
0.4876014952905979
0.49272410698080177
0.4856184496947479
0.5008006239860168
0.4833242097690211
0.4969818483203167
0.48056239577346266
0.49168347214557606
0.4861598191335175
0.500610051465377
0.5081169623368422
0.48920285052569107
0.4981643052512035
0.4941680495112795
0.5109627214337332
0.49045323331211177
0.5107093527071684
0.4964808223955874
0.5106292144110127
0.4980237908056829
0.5211311207346073
0.4967626873341787
0.5228425971608104
0.49991076312737476
0.5305471691819732
0.5040032341636165
0.5230382562381723
0.5003133303325696
0.5253754461371394
0.5178546718564936
0.5322435225816479
0.5175676042181495
0.5310046473856435
0.5302686233604282
0.526646572300251
0.5401018784973861
0.5349401888477243
0.5508491490128764
0.53480633238377
0.5591959853602794
0.5361271780587914
0.5580126123334529
0.5348372745739616
0.5621283475067911
0.541302598220497
0.5616802630920259
0.5466595506904113
0.5606210680731263
0.5437457659796288
0.5720904029306902
0.5425737971151827
0.5590868959883805
0.525309042062785
0.587243223259046
0.5976961207351804
0.6237480330532588
0.6182238877995797
0.6079497288530992
0.5827554785133229
0.5679331825208813
0.5558563530438645
0.549465857151143
0.5697104968610803
0.5599304900383627
0.5790022876467766
0.573736022269361
0.6033896094310969
0.6060986751315646
0.6886654015570668
0.7562112839886111
1.0
1.0
1.0
1.0
1.0
1.0
0.7863327407270503
0.6661683834436378
0.6598839979969486
0.5675091037924396
0.5597879486078134
0.5221952337833238
0.5309374888707085
0.5179062619610443
0.5162177371833085
0.5160605343906839
0.5226668174955688
0.5191093495571335
0.513759655719155
0.5338149583652868
0.5215950902056767
0.5494281287709794
0.5366464577805675
0.5728219364289349
0.5370041067940431
0.5845062588297262
0.5825632833636336
0.624557709370568
0.6117108713874131
0.6800703762093699
0.6856274507000804
0.7419106243053933
0.7539399980583769
0.799459692952994
0.8211347929428043
0.842189646306149
0.8603145433869244
0.881735219725606
0.8599142616324833
0.8087249664252727
0.7481170234091044
0.6793239925563322
0.6335184479125224
0.5730252010953373
0.5557807983279116
0.5157155740471486
0.5143163673056709
0.4801342712468001
0.5034869167178877
0.47941743031223083
0.506814359060263
0.4835246496150273
0.5093686396997251
0.4713938436590757
0.49200266887300403
0.46129617484724406
0.49622925362031756
0.45781522756888576
0.48261280998083506
0.45606299261775296
0.4754576270508945
0.45860880302306617
0.4778593525384208
0.4851743974696509
0.4845023921857982
0.500369495868886
0.5019585555785532
0.5002996343499152
0.49510589114123754
0.49850499167699375
0.4866167694548631
0.5001582658824153
0.48320950754863556
0.5040836689131292
0.4915368276051983
0.5119715940589816
0.4806338411959096
0.5065788321351264
0.47668073435267216
0.5175215795623906
0.4702488611849656
0.4873150820640227
0.4803282765603741
0.49518606258870196
0.4866502185163758
0.5107552569066395
0.4968666725974578
0.5023479124918315
0.49645748878619156
0.5055133303878268
0.5098002196510084
0.5004974173852608
0.5098639078844086
0.5030992889325823
0.5271238278432104
0.5164317559213296
0.5387092626689436
0.5103787454356523
0.5402591136468602
0.5159316492246522
0.541215218314085
0.5243438962627969
0.5365730875156236
0.4998507508768972
0.5551089026652163
0.5185020947966132
0.5664246534232023
0.5302143485836137
0.5518465523618467
0.5333263714337267
0.5393403295373534
0.530570255040782
0.5559950587481702
0.5511050760860481
0.557419129236366
0.5523491983041768
0.5615340534018431
0.5702120072412842
0.5842655164636075
0.5838606140809839
0.5430331089113623
0.5794413430738563
0.6075910950407035
0.6540221408372151
0.6310136198546731
0.6532304154943986
0.5976781856934353
0.6100498000414919
0.5536912646554482
0.5889707617942191
0.5649683999112458
0.593015538516432
0.5767298148857186
0.6006621214375412
0.6045019121180246
0.6601500586620996
0.7405079779819284
0.9071680039451241
1.0
1.0
1.0
1.0
1.0
0.9296783252569847
0.7359413137804862
0.7123333107935738
0.6548702346461297
0.5899906773024373
0.582266593474323
0.545522318066658
0.5611943607660355
0.5254637239756679
0.5570247674639359
0.5148186485135786
0.5573297335630361
0.5258680663350598
0.5533132466772199
0.529328592580495
0.5751370181025637
0.5633773081375695
0.6051332669889614
0.6031555195323006
0.6327358984389774
0.656069606577893
0.6753204362570558
0.6981565150795312
0.7196778736305186
0.76839470686828
0.7980760244253867
0.8550406361435321
0.8766299072171622
0.9434638550855787
0.9538031001221021
1.0
0.9948612662585237
1.0
0.9360019104798966
0.8938152122835514
0.7756174558505842
0.748176127368318
0.6435832453163468
0.6210923646287473
0.5602054881403583
0.5750964797027512
0.5214859688953427
0.5158373873750858
0.4896010254070495
0.503583773304639
0.5045560446242754
0.49748834299794675
0.5160355230896726
0.5080015822765199
0.5277127236257396
0.5260679671498162
0.5420189948882431
0.5311484911878349
0.5464329864299539
0.5414218076035613
0.5516341548080766
0.5260125793736365
0.5706027049355316
0.5298952654942245
0.5670285164952437
0.5299971192108524
0.5421769255453717
0.5159977810098881
0.5433418400711678
0.5263847941470814
0.5366282730275005
0.5174897945811671
0.5301742856972657
0.5103957718623247
0.5404451547848821
0.5218026496242011
0.5283958872487192
0.5326727834126304
0.5200990189513371
0.538390161762166
0.5251923186802709
0.5437963812044972
0.5211284269999579
0.5610691748737777
0.5164384408158057
0.5301303392267178
0.49210479458876266
0.5392044521398557
0.4990263624337321
0.5350631262163489
0.49142333307988906
0.521951895875208
0.5002478680410275
0.5260516099007122
0.480094679027481
0.5010165665341411
0.4833970927898835
0.5108161462723709
0.5007549187114696
0.5124365221211987
0.5111919341366724
0.5140423059798864
0.510754365268879
0.499619333118006
0.5115591021881305
0.49902829327994913
0.526086633253581
0.5083603398391137
0.5480985828837179
0.5198855212907258
0.5537094699194992
0.5096685699784853
0.5536035316172597
0.5234045869286117
0.5558238346043366
0.5344509844322105
0.5671495745875829
0.5249866753937731
0.5673831646937642
0.5338903826079753
0.5613245314555613
0.5216034521064716
0.5237118206400088
0.5573253916840313
0.628637230956128
0.6219271138960936
0.6380770168094163
0.5964448754649595
0.5642446234657374
0.5574095662720895
0.5473571002350373
0.5655707606296683
0.5502734457736069
0.5803479799256616
0.5767376324112525
0.6191540474747879
0.617174349630792
0.7155661155968854
0.7801746247099768
1.0
1.0
1.0
1.0
1.0
1.0
1.0
0.8075414805930871
0.8013838338952596
0.6889302872036789
0.6331886394351389
0.5736782757519109
0.5625361431949532
0.5688161844413855
0.5418838407218224
0.5460431089672715
0.5222369985279547
0.5488426749478688
0.5146132851271088
0.5293642676924496
0.5240907093514136
0.5535589243769772
0.5344683302872868
0.5822410395141476
0.5650116982612048
0.6046976199467882
0.583005089748739
0.6573984832265005
0.6372939341037978
0.699416950402455
0.7338315373431323
0.8072757370018916
0.8308464092694795
0.8920807859609164
0.9429778266329297
0.9945094791952884
1.0
1.0
1.0
1.0
1.0
0.8983846752822716
0.8195791356578868
0.7155087581450574
0.6787641467423291
0.5913335968875012
0.5656439183938826
0.49812423570224346
0.5117403960554131
0.4585113037789973
0.4980356695345723
0.4349096367050233
0.47803683423668647
0.4246142225515256
0.4583078919642622
0.4322424164515125
0.46465778067731306
0.4438937993953832
0.46972499870505163
0.4414808911555463
0.46907723893330333
0.44699172882885707
0.46090722791149386
0.4527455801237611
0.47443215720496346
0.48444055537573466
0.46764556517412154
0.48537272505906187
0.45643027645093176
0.49485871733611386
0.45549707633037206
0.49498084761262656
0.4514803995776595
0.5009979300253126
0.4686174253128632
0.5017753247292753
0.45581895050738525
0.5081273392871123
0.4629381152443675
0.5026859917878175
0.4521565584590449
0.4952611910775596
0.46379760054168157
0.49676272063854343
0.4783573414974819
0.4972007807008162
0.46595650232761415
0.45912543086204194
0.4787770318783034
0.4540883067981939
0.4762959191863855
0.44491018540463634
0.48362810615301743
0.4463392102807541
0.4807283587348133
0.4375860479306892
0.4795066868248127
0.4463809976268762
0.48356689956604254
0.4377166085302818
0.49501526175542787
0.45062308605884355
0.4955942379810384
0.4744522516322693
0.5122928375560657
0.47950927197112836
0.5187241548800048
0.4957732975036798
0.5335089132707826
0.5117903895381248
0.5196168297955577
0.5003975828414993
0.5211886493152901
0.5273094373952978
0.5069181569030919
0.5232029876134624
0.5173368281539769
0.5149273131256902
0.47057209898075864
0.5296116433173232
0.4877159167605116
0.5227854005402283
0.5092534210819204
0.5475607315900304
0.514721032642717
0.5712827870659368
0.5000756864191696
0.5783219062598806
0.5814449081664457
0.639068984746726
0.6163982988315431
0.6483301236462391
0.5973442952022338
0.6018175665287482
0.5411084764961694
0.5553577007254682
0.5708219539986988
0.5514295021079093
0.5918803039690025
0.5661461662268017
0.5885814252683699
0.5975607935024856
0.6571701925058551
0.7344072438037003
0.9092078888682863
1.0
1.0
1.0
1.0
1.0
1.0
1.0
0.7856314933044446
0.7335050184972524
0.7124856405597655
0.5836412304183198
0.5601199798166544
0.49012256653594755
0.5062546309065739
0.459424808426634
0.4647784935481738
0.45701645142309466
0.46417362710964555
0.4792025909142768
0.48471637480900726
0.4863158547993588
0.5125248802262214
0.5219489584659434
0.5262237104110297
0.5689608539851951
0.5712594565275048
0.6389939882271751
0.6280108173231392
0.6857008786201806
0.6882596810277417
0.7738800880540866
0.7482835451081937
0.8501266867660133
0.8598763617853328
0.9514945682465727
0.946966760071452
1.0
1.0
1.0
1.0
1.0
1.0
1.0
0.9004597483557835
0.7829144719013598
0.7298886143143842
0.6397576287253065
0.5959684213095413
0.5213989468448885
0.5335989324061255
0.4794660796961473
0.4881106345031423
0.4542282290613489
0.4999143726049581
0.45227299579765184
0.5089543216024273
0.46186371483340516
0.5198808720501517
0.4663018556192755
0.5283015677327962
0.5029113520927735
0.536321085095928
0.4976485021412862
0.534440659055215
0.504722222345413
0.5199485346509489
0.5175073454153276
0.535671055927505
0.5167897681214718
0.5064758029566713
0.5004304424196881
0.4828037829866112
0.48305447322508116
0.4583519536668569
0.513384920146253
0.4462295102164046
0.4915850433044883
0.43826684087895434
0.47395069309291715
0.4258711548598935
0.49442505417373794
0.4407623602201073
0.5115988449999326
0.4416215011847838
0.4827527463464681
0.4606821899234214
0.4981989916717202
0.46214948520556814
0.5001226761288865
0.4890186222530084
0.514934339773837
0.4949653661136118
0.49113162318999154
0.5130414033517956
0.5060275198176771
0.5122198192754225
0.5005255141339151
0.5205686161628413
0.4855662921962412
0.5250975132506241
0.4896444614425565
0.5282446330651458
0.4783680209660126
0.5438277447693696
0.4778186264278907
0.5470711417626489
0.47730571686306256
0.5285947523223181
0.5034651829139858
0.542432570633541
0.4776445572606526
0.5335011989726661
0.49655428638378823
0.5245118397670367
0.49118456570421587
0.5087239281388528
0.5128779785242054
0.5205132834973477
0.520095037456568
0.5373357353798646
0.5828318368672557
0.5648080809674686
0.586294653803564
0.5526435842346054
0.6061811678483804
0.5734478051216698
0.6074615081154718
0.5636746877138288
0.6377581367871455
0.5821177068148865
0.6313359027236273
0.5494208524047972
0.6433721169239852
0.6826059147048633
0.7428341835927187
0.7339614699873416
0.7512097325818264
0.6716265476743625
0.6772879623062329
0.6267330888311093
0.641512092131388
0.6268822893232926
0.6414573583749443
0.6533671084248398
0.653500812061709
0.673171380884881
0.6622461641276549
0.7303575376508732
0.8379008451134208
1.0
1.0
1.0
1.0
1.0
1.0
1.0
1.0
0.9563138622817646
0.8726343525470142
0.7892164488824046
0.675436487992793
0.6641672417014146
0.5972923996306216
0.6174912028021768
0.5802593677698625
0.5967401642685368
0.5781076063062501
0.5872040294376577
0.5900183788871645
0.5805914428947346
0.5975659206867798
0.5925232517345439
0.6263957939254347
0.6100711092474908
0.6552011146514921
0.6340962619174659
0.6949313608881553
0.664198380268461
0.7450626689521297
0.7604355605500354
0.8377123362863156
0.8229957997349299
0.9335735833327424
0.9396838039157857
1.0
1.0
1.0
1.0
1.0
1.0
1.0
1.0
1.0
0.9742839246213226
0.8770028577102416
0.7781961587223624
0.6712523494466393
0.6235204326579902
0.5687160254810607
0.5683387450757873
0.49874611618030984
0.5143908897275874
0.4555490228682736
0.5056287746450359
0.46632674132649116
0.5115135966281593
0.4562787184328242
0.5008880095710544
0.4497084025805947
0.5045594127855744
0.42270032037379346
0.4813303933105921
0.45437600676237705
0.49306635965582846
0.46698954342199245
0.494274417364388
0.4917797352331467
0.5039634223339466
0.4731018561225028
0.45639048243629493
0.4603996859756709
0.44721959301912256
0.4735105747449314
0.4499832110832037
0.47671686646069056
0.4328458315117295
0.4737014053662687
0.43729204345601025
0.4659796999684624
0.4255661572195512
0.4742114749823344
0.4343903468797123
0.5301631416223705
0.6018946059662367
0.8423670463580315
1.0
1.0
0.8798304695217742
0.06926302380506053
0.0
0.0
0.0
0.0
0.0
0.0
0.0
0.0
0.0
0.28069996637382694
0.5249874442702164
0.5920053653512808
0.6878753721553095
0.6945877117853549
0.7936762412181767
0.77563061618406
0.860417830265923
0.8623062699080973
0.9570518499520428
0.964739458730189
1.0
1.0
1.0
1.0
1.0
1.0
1.0
1.0
1.0
1.0
1.0
1.0
1.0
1.0
1.0
1.0
1.0
1.0
1.0
1.0
1.0
0.9193637105577281
0.7340330678998689
0.6936409416609931
0.5485822599708805
0.5401189581880881
0.45983711960988377
0.47220875274784524
0.41153362134887095
0.4374988312486973
0.40227471375565516
0.3923437568400998
0.4050166171204925
0.40129231773387086
0.38248519301881223
0.3729777453118274
0.3731244661131415
0.34983229269152727
0.35063229528462914
0.33047605462835233
0.359825971858082
0.3095228652989183
0.36284740904261775
0.3084279212763251
0.33998329372132596
0.29337066367460773
0.3383495319346476
0.29308558636438287
0.3505243051492741
0.2917828258107233
0.352556075982868
0.30604760277796245
0.34991057465020703
0.3077598634952589
0.33303217926182016
0.32048990763666324
0.31798008539840344
0.3127931726728269
0.31740314796466873
0.32503078298106935
0.3044604369425546
0.33156026181005144
0.3044997694795927
0.3010688258925181
0.2835815866996459
0.3398505433298829
0.28188217365959345
0.3302429260123276
0.26965124182101796
0.3230051130401844
0.2757528606111127
0.3362458524638615
0.27734554707797804
0.326805139175824
0.26052403514926215
0.317668586877727
0.3014788090437023
0.3385179988894401
0.305445515756177
0.33778883477497623
0.3236753866788371
0.31461086801274823
0.3046335685491999
0.32681830586965
0.33564462931404526
0.3221258083714218
0.33513430338891725
0.32508319032881766
0.3473118460189554
0.31680580865445945
0.3557966006344408
0.3115589338232395
0.352215422395876
0.31226006305843435
0.36303248387638687
0.31421519781378926
0.35768072854504496
0.3082402071892689
0.3528685731111582
0.310429055904086
0.34980833428150293
0.31816937430517755
0.3373708752882192
0.32474517070379927
0.3309967446331824
0.34943255125143086
0.34654803890276054
0.3468617049807391
0.3533976340038132
0.3499246495397239
0.33575111932101065
0.3763465219070854
0.36562725362091325
0.37350315636298365
0.3475025073706896
0.3839857188035222
0.35486721896923906
0.3975849919422797
0.3752273853746443
0.4170218371580946
0.36847492793204817
0.4133546901706845
0.35065106028251625
0.40702314800213085
0.3506051890285347
0.38902872733220917
0.37634037505881635
0.3830648033482354
0.3599834658114486
0.38993343186567436
0.3837411025005202
0.37620999279910516
0.3626355563707596
0.3772624070661437
0.3764762303078708
0.38062354035983
0.3946135636081677
0.3790667600205865
0.41215104921678913
0.38741407178637416
0.4262249240112421
0.4051577660336926
0.43547971023059195
0.4053102512101523
0.4551250486228497
0.43918668632646013
0.4855118612588047
0.4543727899832044
0.4917394279095685
0.4532325419683831
0.5033754432306576
0.5247490604508214
0.5698293673394036
0.573571889638855
0.5556800685950656
0.5135710274816219
0.49399756047540205
0.48086587369568806
0.46889285805219566
0.487724119025852
0.4747218321021013
0.5110845247649032
0.5075927152645339
0.5901494448126327
0.6274457455210334
0.8311525361403607
1.0
1.0
1.0
1.0
1.0
1.0
0.7763670340959855
0.6894918519323461
0.6071516668563259
0.5270744044326656
0.44976363639313427
0.44376580720616243
0.40065861539557
0.41556464100284307
0.3892585794114159
0.4175835610796431
0.39822716827893706
0.40263383740579517
0.4338042467507702
0.4215823151109034
0.4424146693780096
0.42536221527067364
0.47215218594166275
0.46085861053206933
0.5058954957052967
0.4993195060464952
0.5651768733038722
0.553834096248899
0.6196950331171271
0.6300042995461534
0.710601656849017
0.7117970698547694
0.8275546098544314
0.8127102034326195
0.9014094975930105
0.9158830007862842
0.9738503635232721
0.9660084518923906
0.978517943527053
0.9358616897158936
0.8993225562299146
0.791643111209205
0.7078913296869824
0.6239950784911376
0.5432563860585746
0.5115814051044683
0.45933758725262913
0.45042367546186474
0.43336098753336855
0.43888097463463255
0.41750375228767533
0.4411647340706174
0.41202279823387444
0.4458444333024234
0.41020933346483923
0.4524650404820907
0.40626931820655726
0.43923301718229774
0.4249087752065065
0.4633454191596044
0.43738395246409356
0.4631220839941216
0.4382470100594249
0.4531120008398476
0.43247923730338533
0.4388993624840444
0.42062958212695156
0.4202708003984865
0.4171156704748361
0.4083712682026599
0.4045490422585825
0.37769703021225864
0.4104499011987621
0.36783241928868343
0.39902141777448774
0.3794482036013535
0.40069591269139815
0.37263758795196106
0.40145996776842274
0.3580124503508717
0.38759344433066123
0.3525333717845741
0.3938003578663317
0.35661951107050427
0.39829078224378306
0.3688393626045441
0.40075856096034457
0.3770492010828586
0.3976778906393107
0.38840838229945784
0.39496708639121625
0.38201107910411125
0.39046375333058264
0.38384329503405146
0.3951933642688753
0.409530860328201
0.38163604100549897
0.4214995342907278
0.41095492599754957
0.4239976515586349
0.40620887076782736
0.44739310080691375
0.4101005473124529
0.44018762951780904
0.40550134009850647
0.44018881895550577
0.41299354351438955
0.4671169271657135
0.42884002459906306
0.460946183378886
0.4352423105689972
0.46450857232063336
0.44851567675190723
0.4695278293611838
0.4633713671954676
0.4797845868318623
0.49699440371650194
0.4710239191614633
0.5055109787010411
0.5347205592567555
0.5890364863845432
0.5699888137139798
0.5959992796473962
0.5384296653210494
0.5348813480889334
0.4895196643203743
0.5229512253545983
0.5066983898746356
0.5509603528633124
0.5247925351196413
0.5664997755640286
0.5307761764126713
0.5985924616778993
0.6534479093253902
0.8009850739433407
1.0
1.0
1.0
1.0
1.0
1.0
0.9583106642418084
0.7018873367742444
0.7124270020262238
0.5984266636664212
0.5607297027380129
0.5052631413649215
0.521255735434049
0.4686291658819042
0.49682963548480963
0.4684769311854544
0.4942648441269283
0.46805256694660285
0.5158948533505315
0.471668284075028
0.5107337610738065
0.4867166284408664
0.5480761294502151
0.5362124741297726
0.5834781630595904
0.5761356189008933
0.6183304335229723
0.6192694365952061
0.661124389805165
0.6738864236855742
0.7179443929760587
0.7481048651771387
0.7911146399281185
0.8257351162197489
0.8712696408182502
0.9178297234693955
0.9264265749869963
0.9595795417684003
0.9654733224895248
1.0
0.9394525168030995
0.9023549815067244
0.8042336159287891
0.7599519675856412
0.650436075321244
0.6146713908124035
0.5429860049683766
0.5334858330415166
0.4950653486660392
0.4863762521336635
0.45688394910463764
0.47654673097288996
0.44656125455552714
0.47339433213873583
0.444150782224377
0.45189884216582127
0.46326645827194846
0.4650424108186987
0.46392919945414135
0.4364127622950381
0.43490877240842496
0.44175275051621377
0.45298982580980784
0.43230515038095446
0.45643076760860113
0.432104213525969
0.4543195287481517
0.4066798477204472
0.45137723867598767
0.42247789236832267
0.45083364321661745
0.4070004635175848
0.46280761256768504
0.400634481911879
0.4324929954295347
0.38637168374670444
0.4174025996367326
0.3971585959128734
0.42487178418640265
0.4064071888335298
0.421611880143404
0.4138661503754782
0.4086408600948209
0.40599242974153665
0.4071539369148474
0.4223518420034799
0.40713682526418554
0.43023705821694314
0.39784726341033433
0.4356195799081218
0.39412559781150824
0.4236565756726172
0.3939671634303393
0.4254546502444246
0.38789723267839793
0.42592943280951034
0.39754512943123627
0.43686583286739555
0.40116344105166063
0.427812098114621
0.4146459731931952
0.43092622247703466
0.4128648314716871
0.43730643774719075
0.4288832510076265
0.44305789937224216
0.43210421841799596
0.4372337948801558
0.44217212602141476
0.43622439766151055
0.4352093512887311
0.42905338603348986
0.4453348302745762
0.4489225859180056
0.4800859195067816
0.4411034723880915
0.47674538569215424
0.42533131599087115
0.4914832258189576
0.4706221128518086
0.5432083084492544
0.5278714077186789
0.5490463346666283
0.4936052317004707
0.48252419905376537
0.4528131136495717
0.473744080140334
0.48065114367035955
0.4918479918071193
0.4670769870205794
0.4785320560373766
0.494204139141845
0.524910200883903
0.5618840591005069
0.6337211122344466
0.7866881485825307
1.0
1.0
1.0
1.0
1.0
1.0
0.8559455913957853
0.5986608910517462
0.5960834341353751
0.5683222952885307
0.4794995248842232
0.46969059601420415
0.4198306147100526
0.43390465581030313
0.39114156845108816
0.4074938657677398
0.37759275685766863
0.4003552338094331
0.37834897591725153
0.4008704567222706
0.3986423704799157
0.396883249512351
0.42606690507545375
0.42550092343027224
0.4444945433570978
0.43689008951997066
0.4834493906761229
0.4809982238622529
0.5338062306275306
0.5233548315755135
0.5988077663513032
0.5979762013776851
0.6928125083183009
0.6898626011806289
0.7712286664988083
0.7540966092484847
0.8377647650482422
0.8462755635002772
0.9077633155305657
0.8969029335551175
0.934205047919783
0.8814443892880914
0.8435194713330809
0.7784797296818197
0.7171747712857666
0.6220544739884588
0.5703426299502359
0.5186277012991511
0.48165123423768563
0.45935692286584623
0.4211000618564884
0.43546396346873506
0.3874531825498261
0.4190384693625503
0.38050439735390756
0.41101565226581227
0.38923217278282
0.40706619598787447
0.38266250399462975
0.4200163321936782
0.3983862145694851
0.4299211890856318
0.3947331892686045
0.43643170563480316
0.4116995598268985
0.4301208513417051
0.39054765872679353
0.42823272936440737
0.4000307186550027
0.41209463165788074
0.3921471028497972
0.40270020186883226
0.39730299941124814
0.3888833371502874
0.3824547755635169
0.36009807042532904
0.392796999859318
0.3540414409519056
0.3790949082834599
0.34295361113107836
0.3949721416801049
0.34703580480284807
0.38375816319411105
0.34946647214039783
0.39544680930149567
0.3460285151386219
0.38234315001090236
0.35896860280712506
0.3827899782326819
0.3586250025160115
0.4039890708922359
0.3809658530617904
0.3999352840931173
0.3825740344384235
0.3918943566374188
0.3855553768837976
0.38572742848228614
0.39009708107298957
0.40345888365963944
0.41760077818891556
0.3962490791904858
0.41307838534843366
0.38197621869862347
0.416094688545176
0.38787494057639793
0.42776022638267885
0.37948108751629156
0.42518810341495206
0.38590273155042654
0.4206399930475998
0.39740811502562245
0.4347317505334862
0.39798736580954874
0.4190516656298354
0.3950896998805187
0.4195718596511533
0.3991161149518076
0.4146176457136863
0.40688387468883996
0.41653920650595466
0.4246085793784212
0.4237277950950227
0.42084999514444454
0.3967402390447249
0.4497376287456733
0.47164658525540537
0.5156909100370392
0.4991878397960995
0.5050154804927391
0.4522688367603888
0.44738739054263765
0.4034599319092794
0.45273407790522696
0.41417704698834346
0.4522138198687472
0.42805415522632967
0.47707625980957313
0.45556290438341246
0.5024567430485221
0.5462887263755423
0.6861371445530315
0.9144149508209051
1.0
1.0
1.0
1.0
1.0
0.8553261407247839
0.613537903963319
0.5918114895521158
0.49785680746523553
0.46841236643285866
0.4208717151807487
0.4109233879078823
0.359867073507104
0.3938871046071294
0.35817012533601494
0.3823896521826161
0.33301255973556265
0.37207260673596665
0.35275134671831
0.39259225549124965
0.37956455031778
0.42361024192822494
0.39428064966165577
0.43941684858512425
0.42529243884283285
0.4656965353754633
0.4669364872941107
0.5164174340526084
0.5262929021887268
0.5560522401098937
0.5881520956685866
0.62852284251511
0.6754684038681121
0.7079715474625161
0.7588342150635153
0.7730802223303659
0.8248596292834204
0.8339920243747191
0.8584590430257721
0.8110474552915455
0.7766203663549026
0.6888286960928403
0.6608677362853677
0.5512234020067622
0.5242541578515136
0.43098093248095104
0.43527470292726
0.3848877063580926
0.3975903235837396
0.3610106013862778
0.3683941547650007
0.35045436025653043
0.3626763715143233
0.350235843593647
0.3524446779277858
0.3462943445610242
0.35977893185329035
0.36299715725917253
0.32992198316045773
0.36746037639946155
0.352229770320311
0.3772443968387443
0.35664792592683
0.3792531896915128
0.35050915304725627
0.3849158870734559
0.36870168704192774
0.3874026065086089
0.36314868689456564
0.39265401546325085
0.3754789619064741
0.3897215306505893
0.38005650754512404
0.3849355128539699
0.3650933030011034
0.3807836611148276
0.36478555406328833
0.3718195539169759
0.3678058556269542
0.37110108280261966
0.36794959641462
0.3642535534517549
0.37413088839147685
0.35608528834604936
0.37444897260104504
0.35291228330622026
0.3784925111599219
0.359973484146724
0.3795832859271462
0.34830781597664806
0.373705902362462
0.3435025613193301
0.3766962236195431
0.34802264091556845
0.3810980589644709
0.3582091073192094
0.3792034470235685
0.3571452002153218
0.38105494387499095
0.35685801013931345
0.3748506474575925
0.3698483644198042
0.3802017455964131
0.3831481925858683
0.38578190255720884
0.39105840456986807
0.38445108250503607
0.3983532850612198
0.3839339722642293
0.4093716081060488
0.38542464067559007
0.40918866177383056
0.3926675356712937
0.4226162190160202
0.4010715897114429
0.4297384964235368
0.405555210832802
0.44999205346514815
0.42167416639304783
0.4472047341447739
0.42669610000827757
0.45179320700682124
0.41667911481387654
0.47058781668649124
0.4630692786584065
0.4935688422060528
0.4892038744890798
0.49034763654203967
0.4617897376557452
0.4372807067931329
0.4300342111115102
0.4276156140758537
0.4416250927726101
0.44011645749135797
0.4508868572099326
0.43757563326916227
0.4622039087799611
0.46057581857230845
0.5060250790886907
0.558418409446786
0.7000030050175369
0.9494115799684681
1.0
1.0
1.0
1.0
1.0
0.6817515319035383
0.5498740705590259
0.5492006920336363
0.5071608145392434
0.4541029634281794
0.43524255096034603
0.4263518688665712
0.4168813505854036
0.4247276771820861
0.4130987283930293
0.41486988958008747
0.41242627027429773
0.43737779965009915
0.41628655008759174
0.44210508226181056
0.4160276026015614
0.4602387412626562
0.4368469541566129
0.48078219411378786
0.456270319558274
0.5142400839261487
0.4953325178757552
0.5410108240428116
0.5336473277430228
0.5957353511193173
0.5977886779056872
0.6589491352698634
0.6707054507276308
0.7408744348235217
0.752542617326279
0.7999132115509751
0.8114956744409643
0.8084606682885163
0.8347627559507226
0.802404714704773
0.7686429238822914
0.6971522186115127
0.6536041742260246
0.5836341044546443
0.5625750287006395
0.4960024073360375
0.4935182105612036
0.4507848969068978
0.45034928881042785
0.4278652215719898
0.45155693801540037
0.4171354203811581
0.45465344017485976
0.42035947088858894
0.44259509829346166
0.43126766946291495
0.45487770055580035
0.43544913629504584
0.448048156664499
0.44070291753306934
0.4429780062787885
0.44693921292142413
0.4486419700239307
0.44054569392952103
0.43453321378085874
0.4475350905182463
0.43954644270830645
0.4419543679760237
0.42832933027661857
0.44516804160944173
0.4197453660080538
0.4483241139918809
0.42843897576572926
0.4437317623066509
0.4256596724672197
0.44561467148115214
0.4278367564295526
0.45286457758978677
0.4359207698398488
0.46239177289354305
0.44733913293510447
0.4683856758009372
0.4542315798522667
0.46298178637165616
0.4578235099474174
0.46984913627916747
0.4574701778742787
0.4600975210069441
0.46531339198877975
0.45934567730706466
0.47475315161484755
0.4539879475764173
0.4815594309228858
0.46331682657864526
0.4797425706027588
0.4628913701633941
0.49374488039888675
0.4649765277461032
0.48741295971286813
0.46254348047105875
0.49147081420786576
0.4694893302693634
0.4932666292763458
0.4709093324489852
0.4958531132654895
0.47477721294973946
0.5035239212109387
0.4842876463311277
0.4986146800954233
0.4950348656983053
0.49688025177061146
0.5027898603632334
0.5069257839839133
0.5089048470869141
0.5077759568413172
0.525479694220775
0.5169135248502906
0.5356498889887029
0.5165174372925916
0.5768495318422092
0.5715410547929999
0.6086100063484519
0.5686104912985371
0.5873630193454922
0.5439361346141985
0.5568945970065164
0.5283119668870153
0.5627150054805883
0.5325125631914405
0.5726626903126911
0.5463281931797387
0.601652854130934
0.6298584084403676
0.7320123481491096
0.8837149173279348
1.0
1.0
1.0
1.0
1.0
0.9998501099199636
0.7428008889164017
0.6951491209201544
0.6085309251672552
0.5662405581784749
0.5157943043234463
0.5177919474594554
0.4890321622547706
0.5149127991147755
0.47650592449177676
0.5071733470712175
0.4829837822536717
0.5053998789765731
0.49395662471262447
0.5276037308981569
0.5047238550157317
0.5356342593218812
0.5239230086997688
0.5716933566320519
0.5725121857874429
0.6082532469770705
0.6241925687313952
0.6515486844445192
0.6832088894399653
0.6937718199418995
0.7467646966095483
0.77911363359779
0.8246227822375303
0.8376886883953361
0.8833778553562694
0.8782908811068563
0.9340119558947034
0.8900849408839087
0.85769465377853
0.7890520957607521
0.7598078624736153
0.6676214646998657
0.6358969632034771
0.5670994461645761
0.5673156304871153
0.5200658248946499
0.5190498294247761
0.49592999507095126
0.505656210709198
0.49007965313987006
0.4918313890178183
0.4823275888898523
0.47627655253575946
0.48044168014585625
0.4919257660569051
0.5017030951402484
0.4824850183032141
0.4925309072625293
0.4666235286425118
0.5000507915056247
0.4752564040604595
0.5007012882853268
0.47663588370265764
0.50549671774311
0.47005845463072343
0.502603430955489
0.47141991041847336
0.5031989424519261
0.4673801761884223
0.49251615040869534
0.4832561110371378
0.48604934491406687
0.47804643845882533
0.4934308484657236
0.48181714544036974
0.4880877716987224
0.47820317562587233
0.4808370401433379
0.4788089774967136
0.4746671756312587
0.48440451518614536
0.46470246163462203
0.48332460783387354
0.4702201075016762
0.4849690189442356
0.46437581040528075
0.4778245361888203
0.45130579977200946
0.48268530504418267
0.4650140199988436
0.47740965812416086
0.4546148840808833
0.4883264155732423
0.46482904182357554
0.4826238339851727
0.4491905741552323
0.4845918736191922
0.45882743510885915
0.46945953225764114
0.4590203309912001
0.46572567106379975
0.46749333991044245
0.4624253899244783
0.4676452745280968
0.44778274861739814
0.47443578237766826
0.4567935676655307
0.4713920389617649
0.45528016540081906
0.4730152955056616
0.45274651873352656
0.47874282850487637
0.4642076972850468
0.49398901556207775
0.4703621601138123
0.4977245348235403
0.4774254007818784
0.4999846915671619
0.4625168766531421
0.4980552304008884
0.5286750340412603
0.5644599985584644
0.5386347570899757
0.5524514026562531
0.5228864731709769
0.5175512747320173
0.4915450255763874
0.4928554604952172
0.5166588105184827
0.5061285392851066
0.5125117959951383
0.5030874602325615
0.5418761907298439
0.5552160268892102
0.6448599647453426
0.7121206014893952
0.9864852270359815
1.0
1.0
1.0
1.0
1.0
0.6750122437161922
0.5955910753545691
0.5950421773996369
0.5215416674249708
0.5175178319443
0.47242398146008097
0.47950516408411625
0.4658656863772236
0.4684607271488305
0.45862065792650136
0.4685730405148877
0.4794502911131141
0.46361807987841086
0.4805109487311028
0.478171452064719
0.5105350515077784
0.4983124145956669
0.5323583885976421
0.5300687327155631
0.5600666378336726
0.5398274337371591
0.5977282560023461
0.5940050865344151
0.6542181747725996
0.6636757341256412
0.7358820629540983
0.7401713623682442
0.8026055583122771
0.8189965180470038
0.8788743520438829
0.8797033728897201
0.9126042858255801
0.8865379995436541
0.8598765170409365
0.800529541412554
0.7337620581718605
0.6719202930763065
0.5972902708048878
0.5612576758426995
0.5134206078537547
0.4940475756396684
0.4500763254064396
0.4700306124271318
0.4386842620846242
0.4540421952068507
0.42233714096295005
0.4332806477110104
0.41827288132960516
0.4492825370211593
0.4135164671775682
0.4438174510603107
0.42680635384269017
0.44571037731619273
0.4255784958651443
0.4504137529879012
0.4325594868169661
0.43900500932499664
0.4302769476675968
0.4390922443122663
0.43480659119055476
0.4391254134014315
0.435698376235749
0.43200944384201484
0.44191700748150364
0.42510967355803314
0.436122624327162
0.42640881251148965
0.44546403269793605
0.4235139044583952
0.45026748698727415
0.42301478024465833
0.4427675881678427
0.4212747227387469
0.46194495684486936
0.4349757070778894
0.46480667557207395
0.4401276728653206
0.45489793635940534
0.433383688887803
0.45698466363375656
0.45063435491182185
0.4521077795665292
0.4506201030356841
0.4731862552231748
0.4508922709653184
0.4653187972801002
0.4626666984473628
0.4560959296196622
0.4673041414463358
0.45818426985554517
0.47671232928921947
0.4567784707255357
0.4795850619833272
0.4626305607268596
0.48374263525365596
0.4637331602763292
0.49772289222350546
0.47618275119425874
0.5072910933088088
0.48076255644850263
0.5029762062817879
0.471084697867457
0.5048968048689452
0.47633971966475
0.48770192451173344
0.4711110849549791
0.48731784646427806
0.4836075119304324
0.48966721510132627
0.49553448962241353
0.4998984717253312
0.5082273652867454
0.49818038382893876
0.49627641402773054
0.47818939906623026
0.5186836956540914
0.5617581806988244
0.5755728636591549
0.5665881044390939
0.5622971834261868
0.5269682794795365
0.5265591082645871
0.4867880645708924
0.519397703907744
0.486493951628128
0.526354697470514
0.4989886189595826
0.5391229392715794
0.5305531297625298
0.5897881881187329
0.6618444050488399
0.844023344330313
1.0
1.0
1.0
1.0
1.0
0.8864416640201979
0.6374528076634743
0.590945819031887
0.5623518335021691
0.4830340852238876
0.4983451536526404
0.45093308213766925
0.4643738075055734
0.4288725957514963
0.4626179273037758
0.43750629503915245
0.4701279136766245
0.4451825250634057
0.48237877588647554
0.45652073134110466
0.4815343127934358
0.4743104369591058
0.4936891887052373
0.5025529639562005
0.5259646979688022
0.5217756410411521
0.5489908429572559
0.5635184892454652
0.5849071221408165
0.6303263774354602
0.6547933455706495
0.6981576579160063
0.7151739249298543
0.760437058457547
0.7813727155104642
0.8246272566850598
0.8294979083360104
0.87017246411895
0.8420805306286505
0.8262163157590443
0.7392070221201477
0.6958962884250293
0.6129843575016745
0.5719894408283624
0.4994074845195482
0.4943533757972028
0.44549790505836756
0.44322898974315816
0.4069993867134696
0.401906176449976
0.38063692906101076
0.3852117927090723
0.3756670058904423
0.377753732781938
0.3809222056056841
0.3598604671651497
0.3685425205481083
0.35232332548639533
0.3661455591798551
0.347888072944645
0.3762971695061566
0.3405192564553511
0.36182008630208495
0.32381946017957014
0.3605245829320608
0.32467287299993186
0.3569725862800737
0.32548339385008135
0.354492269783431
0.31806435626426016
0.35469641571605653
0.3184160881410681
0.3341691384102656
0.30000486002694315
0.3078595880238192
0.3051642246004346
0.30793533809177764
0.2970128493559547
0.2891435900503004
0.3058017905029166
0.3006787012822883
0.2970107727017299
0.27381769968465913
0.28816246553544234
0.2801360242052388
0.3026501434926815
0.2882862401958708
0.31232348682205796
0.3061656159638154
0.31105274073178746
0.29403160065173106
0.31421663382862064
0.2851297981519338
0.2988259349971326
0.2874354785715243
0.29866110636126864
0.2774211852139713
0.29124406685403476
0.2644416595036738
0.28791427008493364
0.27777089640100844
0.29642224181519633
0.2799144893680302
0.29302941255075987
0.2989286464971992
0.28797381649747567
0.2960143274264444
0.2961937344720778
0.31457178599638363
0.2989062743589682
0.33405373773267644
0.31049514491995495
0.3367291245232534
0.3082798002032082
0.34991066268775334
0.32058135878132876
0.3474128885657636
0.32923436049873855
0.3664621498493738
0.3498306374274662
0.36851939564480807
0.34690146853536225
0.36582384701901544
0.3589347402568226
0.3799694059670024
0.3685972678774747
0.3578255464090473
0.35304457985024484
0.37853441617261996
0.39818653221279954
0.41225839157847866
0.42051644181741965
0.40310998140279786
0.4054680152385002
0.3522618757944763
0.3779268287778005
0.34161036871921574
0.3778920027569762
0.3560731857502901
0.37293179628325496
0.3502389539581972
0.37880478742812
0.3737883110845494
0.44042006901154246
0.4869678721443953
0.686312141531005
1.0
1.0
1.0
1.0
1.0
0.6949640624389121
0.4329304485869597
0.44025476022643667
0.39419264122408554
0.3458627512600395
0.3342885030666083
0.3097704794947468
0.31164135787401925
0.2939295161732659
0.30856890797879555
0.29044171094408705
0.32467673169372235
0.2969343753528032
0.33243146019210207
0.31960422202009753
0.3441895073842268
0.3204276382825662
0.3594806908727929
0.3435389157938896
0.3673600080181968
0.3777312392162908
0.4066820844952404
0.4266988125424196
0.46331394983202745
0.46814774012789845
0.5035274018772298
0.5303161270975014
0.5744315062556031
0.6159549630515835
0.6391792571999942
0.6915569688714529
0.716530867957194
0.7480976735645475
0.7316856600181183
0.7282345006773617
0.6654439637433319
0.6293790410162716
0.5378805806139851
0.5181174786495446
0.44796899712765725
0.44727534903780103
0.3871480843210181
0.389167932625588
0.3681143033649684
0.3862710550833392
0.36833494321498994
0.3830534807308332
0.3593038694831838
0.3758740474633454
0.3672659016241192
0.37850596175958906
0.37245975201849335
0.3745925456772009
0.38328300931809334
0.39290944560076607
0.40901583748279463
0.39141554808766593
0.40763600249179044
0.39391812849640173
0.41384915530501604
0.3941050559603979
0.4105873533540475
0.3945056022315715
0.4217837993921371
0.3903219944762527
0.4236304854219125
0.3983460581535471
0.4281030669970531
0.4054231918291988
0.42590972421541995
0.41583106340595666
0.42993761598475766
0.4276396367994459
0.44043716666156635
0.42972934805870755
0.43505849179063044
0.447834019982358
0.44334518490791064
0.4657430294389135
0.4481736062919583
0.4568245042454205
0.45310478987706554
0.4820938387676838
0.46203892725390894
0.4780199120999248
0.46141343699925425
0.48862221427243063
0.466456761014039
0.49617269799943775
0.4711286480192678
0.5105201095845884
0.4948515407824507
0.5229170352675475
0.489600583037386
0.5212374466001933
0.5224972549728931
0.5404174669157678
0.5164978717691675
0.5448746061520213
0.531554953838418
0.543109971001438
0.5370034900975164
0.5364017686736322
0.5443259706373338
0.5502881835094044
0.567139984412245
0.5438594822808007
0.5649130087446732
0.5440470902276698
0.5699859500786686
0.5568255203893515
0.5797254691551613
0.5703664180764261
0.5920386228802216
0.5621347216799468
0.6066070851607239
0.5724819826115858
0.5989985887123555
0.5811700059936558
0.6091309302942589
0.6029275601638291
0.618648508449463
0.6008426897834738
0.6205663909964036
0.6179242574946207
0.6205334154906212
0.6643986828110506
0.6946541878111242
0.7004818010095196
0.6978558028233819
0.7071901976014754
0.6663718502863645
0.6684618091121131
0.6386201854618816
0.6612752920040015
0.6384088100620262
0.6734323720667966
0.6525985829954849
0.6933131469871175
0.6859063183360731
0.7413950004255045
0.7648757632685953
0.8804868444529561
1.0
1.0
1.0
1.0
1.0
1.0
1.0
0.7699971993820997
0.7764018272395201
0.7243046241782914
0.6927661377531867
0.6578778987813312
0.6647528437115808
0.6181111269225801
0.635103351985289
0.626367978331108
0.6484358141919829
0.628494945082861
0.6622462211131852
0.6411807129409968
0.6784512225364219
0.6594125951500965
0.6891388521225748
0.6625882469211337
0.6845031144923664
0.6759327732495158
0.7064864659857376
0.7101719822778243
0.7402738114755186
0.743213548549085
0.7794332509387782
0.7992854464758097
0.8303617779471365
0.856480438729208
0.8725361196989354
0.9160094032200681
0.9377123700720237
0.9726027736211961
0.9667461831566211
0.9899003239906066
0.9686084638612252
0.959269128512464
0.8858114048480441
0.8576579969010156
0.7691948033325505
0.7586143454962926
0.6929093546615599
0.6894790184203589
0.6387789883538486
0.6467495852727108
0.61046117812895
0.6140199459747443
0.5948733923965571
0.612595590353165
0.6066349832211773
0.6199647924228039
0.61085163471365
0.6081077056908528
0.6014231380738686
0.6051065770278357
0.6117788602948565
0.607166420998451
0.6229582572647827
0.5953695356187936
0.6166511186548425
0.6122767479004595
0.6354859629289852
0.6073858625729468
0.6265656508181674
0.5979002551441883
0.6308535646804246
0.5945168110668921
0.6207296192979946
0.5890125002290993
0.6040927650973431
0.5767954814157317
0.5993930838507031
0.5781358901363479
0.5790787446283628
0.5715336744822341
0.5702745812672708
0.5546541028346007
0.5578667325077552
0.5583322541145549
0.540558980762985
0.5553670656870588
0.5418292877942531
0.5562799385387956
0.5456010174936398
0.5702041300389411
0.5531350579059464
0.5654990479198359
0.5517143346218676
0.5700739422989326
0.5524855322409794
0.5783380467397155
0.5609407599424754
0.5876773601961316
0.5598339870435781
0.5808839602679592
0.5599388018644708
0.5704506682344461
0.5562313250142734
0.577195377344889
0.552158236508285
0.5755006109425256
0.5717517172985321
0.569338641347702
0.5649672030863307
0.5620313906934274
0.5717571678558429
0.5715181220677059
0.5823507674193786
0.5787031182672087
0.5924646316321479
0.5700854352615744
0.6026089966806015
0.5663728097714679
0.5922340612309978
0.5807803611413613
0.5998938375978788
0.5772014111689548
0.6038677459209958
0.5809589386413426
0.604213376564587
0.5901571702775497
0.6066049867390533
0.586819957819409
0.6056013924454237
0.5855478054181076
0.5818368929986877
0.6016124634538841
0.6474389655380376
0.6493724132027785
0.6619079637075315
0.6542976417408662
0.6265836926234607
0.6286317207694083
0.6028008193020347
0.6243158921280532
0.5954261856909964
0.6183134439924619
0.6001803455542251
0.6247511106343817
0.6232416371276918
0.679761603698285
0.6959698549212104
0.8413041065379406
1.0
1.0
1.0
1.0
1.0
1.0
0.7816977331138897
0.7138320822512926
0.6910625719678155
0.6365321243443082
0.5866003051939208
0.5646352414542211
0.5660171054855898
0.5539420891154837
0.553767766058903
0.5471213534178103
0.5623056630785574
0.5428678067327689
0.5717434459766386
0.5364348548622024
0.5547116433523278
0.5529999551153424
0.5765998831218855
0.5428751660962431
0.5827696943127878
0.5584761305082083
0.6039216518527162
0.6238304361304092
0.6431676941239175
0.6313325362727011
0.6690592501526533
0.6977318593583903
0.7295346047400851
0.7486050847502318
0.7736408989494157
0.8026362550170905
0.8031776370030709
0.814087202747461
0.7798730103992282
0.7378002064610651
0.6568379021893305
0.613971354616663
0.5400961077193147
0.5293468257316232
0.46787915822481463
0.45587747060196715
0.4368623743220428
0.42859461147171884
0.3781822481681719
0.41227100534597394
0.37792173020637604
0.3995137947065416
0.3812909457468085
0.4277003637182847
0.3747715124011875
0.38445009575491246
0.38168496849365136
0.40296020632041757
0.3800184057482964
0.39046016743802114
0.38912357979724554
0.3894906967173793
0.3876622137163319
0.39076074110710063
0.39472923423995254
0.35838392273492387
0.37487093657179393
0.3671204295538595
0.38065856297248796
0.35271960400222613
0.37976588642220077
0.3462443005956054
0.37330416371210046
0.34551919099806794
0.357377190665851
0.3335526492194401
0.3583612757083543
0.3281499797225035
0.35355147448902047
0.3327629409633802
0.34372504947051363
0.32472778892852405
0.34429289341752034
0.3436238204574704
0.3493613856874336
0.3395190905584757
0.3524309354478512
0.3587475368355175
0.35175707308125104
0.36812362164943846
0.35476932527945704
0.3837571207000809
0.3703677952752715
0.40061249606986166
0.3813529603504485
0.4169308534393699
0.3912910506640852
0.429110721550209
0.4085131587034908
0.43537886388718217
0.42085920658517695
0.45111740915657583
0.4429541203669352
0.4642263391432235
0.45830235970812555
0.46782218138045717
0.470380761168511
0.4909978106450447
0.48304706479247217
0.5022760346513218
0.5049673340561772
0.4998205373251442
0.5190369829475171
0.5237226829200227
0.5316538671601777
0.5368041290574912
0.5575197123482534
0.5440724442181214
0.5880607405612219
0.5314746745740654
0.5823808793835451
0.5641367440151703
0.5817861096430166
0.5624937088154738
0.5812848679704301
0.592883227324378
0.6279605728278612
0.6198767607024738
0.620160935562839
0.60310900728504
0.5791579618048897
0.5656510722493671
0.5603467854540582
0.5515128125127576
0.5768967182282781
0.5848308694251385
0.6049651132752005
0.6099034493422983
0.6378081440790013
0.7377762053881125
0.9569284174297072
1.0
1.0
1.0
1.0
1.0
0.6959097695195495
0.6570258028765279
0.581153510313635
0.544308159377018
0.49611436978642554
0.5137897874578535
0.4988956948216291
0.4762547625248351
0.4700972349461754
0.4974574753737538
0.4727380454451767
0.4550417709813689
0.465453821644494
0.4695809190710795
0.4839307784489354
0.48613475351571234
0.49163707176840754
0.4855789909244165
0.5133725032697366
0.5085084507675168
0.5386739681323292
0.5316615731827306
0.5800334136044849
0.5800985209369048
0.6261402704050018
0.6236619683039347
0.677535492221234
0.6859877833699272
0.7223963366725767
0.7283094933781044
0.7397309074096525
0.6895484762084065
0.674408417463491
0.6256803629167564
0.5845600050437963
0.530077443202214
0.5046092908264982
0.47986060490595406
0.4726441702782064
0.46397760791838427
0.4480907412509428
0.4485724694780117
0.4495539890933493
0.45305731794858906
0.455432649914986
0.46831613525147997
0.4604565754306507
0.4818425661865334
0.472344904261999
0.4896111874557739
0.4791907293454522
0.5003542172614093
0.4926416100864536
0.5199245650825662
0.5050888450668495
0.5369992313617138
0.5215833800573497
0.5345074930788546
0.5238223823840582
0.5465562930077121
0.5319140924190603
0.5430537392508188
0.5305847824751703
0.5342320316764176
0.5534680222786728
0.5448079684937881
0.5548397836339882
0.555647162811675
0.5761759806088731
0.5566037151739252
0.5783915424453737
0.5644182735380997
0.5901444163706933
0.5602299058017912
0.5847157828641243
0.5676129316111441
0.5890281212610302
0.5655260030024627
0.5844933028496514
0.5784254523196783
0.6012834256059845
0.5820556557556645
0.5988060871989946
0.5932907267345622
0.6130634789784556
0.603715139576497
0.6137507711320848
0.5999233253607363
0.6076275474156281
0.6243813590351086
0.6129604370026004
0.6186670856798655
0.6101962751349848
0.6240063641645628
0.6139336211776674
0.6214346344522853
0.6121227074993053
0.6356889038804406
0.6209935351257807
0.6408951272752145
0.6172706568205962
0.6355167310649232
0.622839439858848
0.6385672699158693
0.6319298403531548
0.6547745312239188
0.6449233620365087
0.6568879030894887
0.6520099428358088
0.661331373110233
0.6603175123995767
0.6563690789865778
0.6666849045586238
0.6644772093717759
0.6814328568200506
0.6781445105151935
0.6806418372409649
0.6655667779318228
0.7095583810862248
0.7206789713037934
0.7314480394552089
0.724759479953933
0.7249708630864495
0.6979240473210084
0.6985341404399692
0.6847849539866968
0.7027505519511454
0.6802414539504854
0.7051864736250326
0.6845280348666014
0.7118583394060602
0.7171404053647596
0.7702691904233252
0.8225412939876335
1.0
1.0
1.0
1.0
1.0
1.0
0.8314962731076845
0.7652350440514318
0.7449210546892817
0.7101197817360745
0.6727834902498586
0.6701383429763347
0.6474786093530619
0.6542629536165929
0.6379081219359972
0.646065321437975
0.6337523036726038
0.6568342928085332
0.6387500488742043
0.6533589183924928
0.6439402164906987
0.6552685910410998
0.6486685529090083
0.6728794323379739
0.6684180277790491
0.6889347059506588
0.6942114284906298
0.7099252035248919
0.7188955208107082
0.7361751408017797
0.7539757932594163
0.7625549532543292
0.7973570659715243
0.8145350535376101
0.841109206383295
0.8560993909084427
0.8853744398222533
0.89049307424927
0.9144279254472757
0.8836231411175508
0.870364517020862
0.8175795117677056
0.7932936041635009
0.7429404800855022
0.7246580452448073
0.6772566374339917
0.6731119200200334
0.639435004960346
0.6341620373045135
0.6134131063814714
0.6264436846018593
0.6114310894178692
0.6117492746143871
0.612031585765107
0.597142387958969
0.6105017827444472
0.6037991609594978
0.6084555388741937
0.6003448763234911
0.6125516084668132
0.5970186322994
0.6174197233424372
0.5972092427876379
0.610085686620299
0.5899265714800982
0.599665322703116
0.5804977888781442
0.6010724744203032
0.5752612881347331
0.5968339013359867
0.5683230397817561
0.579595480053354
0.5674449799205278
0.5850648860072772
0.5650104576392209
0.5664226835999575
0.5595073908334772
0.5629865371697564
0.5564675584869415
0.5576301352542513
0.5645950521238939
0.5638167543411294
0.5648114991035108
0.5608130969582555
0.5673583913866955
0.5492376647184267
0.5661811760305634
0.555184633616998
0.5661126145750911
0.5563745472121209
0.5714281367676195
0.5536213325110362
0.56212661511903
0.535249733859861
0.5623351997795679
0.5402230226650391
0.5704385700234459
0.5498857993529506
0.5741970277415968
0.5628028384633446
0.5612073504715461
0.5648869215948822
0.5709722255105751
0.5686488513927248
0.56919351098766
0.5680833735377451
0.5669282855259692
0.5837525288586521
0.5689674630518232
0.5859278768571321
0.5735157795194692
0.5844311899395848
0.5646550146637166
0.5842587454772804
0.5644104613435524
0.5993894984620427
0.5776942159713399
0.5952377795608547
0.5896140424793175
0.5941477920405371
0.577403475164249
0.6002586738523893
0.5817620455510598
0.5959162501668314
0.5957874702818666
0.6102246024272152
0.6044143030428653
0.6040697283036546
0.6085504883689661
0.620440406025143
0.62834338432354
0.6324020990690045
0.6395817406561504
0.6199110481336024
0.6184581814511799
0.5901460839009324
0.5993060996861554
0.5878010768648381
0.6111434895442125
0.5918191377304269
0.6124998659928431
0.5948750721075253
0.6298737806356896
0.6304620533801877
0.7004749314405568
0.7470961428897791
0.9630607339823296
1.0
1.0
1.0
1.0
0.8917705394336523
0.643664459815495
0.6203954942021447
0.6310963600683417
0.6033217569472148
0.5898474924609577
0.5793333863884447
0.5662110276677412
0.5674437635426238
0.5621808597553868
0.5711254694992671
0.5524186974358217
0.5803859792513525
0.5592174378515792
0.5810552900182071
0.5691863133801078
0.5831103058165414
0.5653644207893177
0.5929221033412831
0.5842911317533415
0.6054272780624107
0.5959280791395217
0.6147187931526036
0.6122581497840491
0.6335605229041101
0.6297998782690375
0.6484148843068016
0.6687192808110565
0.6835982373268199
0.7027944914751807
0.7064977003594193
0.72651035903103
0.7349973085296722
0.7565367081447566
0.7490559077400055
0.7588709241353586
0.7364012688343202
0.7208937158315528
0.6761755303930812
0.6531313902242721
0.6067556742060838
0.5942531469058283
0.5644440754135481
0.5656462274935014
0.5280505585351276
0.529908878128062
0.5115715783264416
0.5341042007234912
0.5200834843730445
0.526167467147621
0.5170429927711776
0.5214335426285772
0.5257420164011444
0.5207367916221533
0.5244998002344419
0.5200025448163794
0.5309142533914886
0.5239596972885765
0.5339700205980862
0.5188009402003239
0.5329613951733179
0.5226479597892117
0.5416369400421777
0.5241120646895574
0.5363771726118102
0.5230912599696558
0.5364050776330652
0.5237848011184377
0.5366524798404141
0.5214150478237934
0.5390662927607073
0.5224723924372565
0.5269037788131365
0.5211229410331918
0.5244261253661987
0.5148169032527362
0.5195750437224111
0.5159494152520634
0.5167658652695187
0.5213974700324642
0.5094804315585677
0.5163535827325075
0.5125529924949992
0.5256529741282531
0.5172848421900539
0.530391202550206
0.5160447468639882
0.528807525187831
0.5120742971346901
0.535202572437587
0.5204016043887532
0.5345504459308533
0.525126503660986
0.5294237664954853
0.518578453706368
0.5285624625689798
0.5146218946261929
0.5338868887412321
0.5287416629850374
0.5430570026218227
0.5346197491306204
0.5370589661589827
0.5283646705519345
0.5322054110650146
0.5337172352381377
0.5339900165759796
0.5485859897783519
0.5345668620771723
0.5373411658982533
0.5246393974313439
0.5442551285827014
0.5272003863269356
0.5506063969253423
0.5312715617020658
0.5477760734479243
0.527370909127592
0.5496379828420844
0.5369320016968163
0.5487460292784465
0.5320674131750971
0.5538341070082416
0.547391558895581
0.5572217366112324
0.544840143969088
0.5610427720791298
0.5477317927914289
0.5459627793254384
0.5697979111400834
0.5863585092679255
0.5850816660355159
0.5933458100944206
0.585474912808508
0.5610660961832624
0.5624921700216658
0.5429995926079879
0.5580392083922865
0.5487263604813729
0.5618210739471456
0.5459889414381031
0.5610005871766339
0.5577233041723686
0.5733775792105095
0.5847795596068466
0.6428672164574262
0.7119122526407088
0.9117419154360423
1.0
1.0
1.0
1.0
1.0
0.7231174678081789
0.6113813421696694
0.6252818570810669
0.5855193358197173
0.5619176621515378
0.5441594667662497
0.5356268258437349
0.5334070812108738
0.5189066113463862
0.5271066002115553
0.5159560081818209
0.5325313257550798
0.52034051813149
0.5416001138076628
0.5266456982305715
0.5454563610125371
0.5324340673639766
0.5508825381965495
0.5421898475493782
0.5645521700193198
0.5561735566972948
0.5793955537368359
0.5733557924802339
0.596885087505779
0.6115851002581392
0.6290239593704834
0.6408407177318828
0.6601505454698454
0.6808092044024726
0.6885648470291154
0.7113373234770481
0.7132759683854337
0.7363528725602008
0.7336124894931025
0.7455977128617197
0.7172884748519419
0.7020527827982119
0.6540261387022289
0.6378148582076831
0.587353945331275
0.5827932968706524
0.533962960002459
0.5296796125360423
0.5022953944984282
0.5214775432638625
0.49984183118132847
0.5053437486253479
0.49201741496675727
0.49551696593175015
0.48872191934678544
0.5001495133277846
0.4976793895459636
0.49643275520471997
0.5013120671057549
0.49846964458711385
0.5016091517472584
0.4942094086723392
0.5006645618097966
0.4811530944882789
0.499771122762215
0.4881568559664745
0.49628716540016093
0.4840293513198491
0.49798508827001653
0.4832013956086499
0.49304253783874674
0.4738605215379333
0.4896686646728954
0.47398544927438807
0.4852253542354156
0.4724454892121034
0.48065056878844753
0.46399693269368336
0.47753265881645895
0.4679743790191909
0.47048350373598347
0.46795946199556465
0.47027450100324186
0.46758233426604523
0.4639463551486188
0.4691663779614572
0.4537479010060304
0.4670500228948562
0.45677962699272784
0.4675074107860203
0.4534723214041293
0.4776984469793747
0.45693803561381774
0.4744441954716089
0.4567071656528624
0.47264310723914305
0.4514575046197633
0.46775299343242815
0.46108253868588484
0.46709944041812673
0.45821226136919135
0.473275381604897
0.4595272301336636
0.46136454702693647
0.4661499704541418
0.46891372270536114
0.46783369956636617
0.4649147005015937
0.4636674835470457
0.4601729693801109
0.4694509992171545
0.45926513404078406
0.4760315296344772
0.4674431037590082
0.48126130651189314
0.4609569584742045
0.4785270975361301
0.47107312830726744
0.47551401686871586
0.46847428302900296
0.4844744148052693
0.4661988529111447
0.4912249114964819
0.4778793866164692
0.4935164310186867
0.4748690767430227
0.4908975328555778
0.5038208431807581
0.5245167080323437
0.5209483201267913
0.5274483460498264
0.5075380929814581
0.49225065528088346
0.48918818343209747
0.4834272139811107
0.4941876856120124
0.481714586983301
0.49121773454266854
0.4901555543949635
0.5040814631208865
0.4975274709003431
0.5511132464988785
0.5994155684816997
0.7352944900593626
1.0
1.0
1.0
1.0
0.8807418458530808
0.5818692828184356
0.5071731222322163
0.5433106737285603
0.48890549908573855
0.4844085523239359
0.45898471288695364
0.45406664170148126
0.4465911906111607
0.45244983903362457
0.4458758883753502
0.44594018197266916
0.4524606332958796
0.4455350907732226
0.462488565049918
0.45230070380306486
0.46495398236293284
0.4573706223911727
0.4763942119883926
0.46313210185819215
0.4891130014350078
0.48870489232723535
0.5125454364407844
0.5136731932326144
0.5443301228203381
0.5446014334257796
0.5804777555961668
0.5890590051254703
0.6139546718358923
0.6202748012608722
0.6455829153055663
0.6600433563185503
0.6713832573218543
0.6585699904357891
0.6419279342970364
0.6121873495549206
0.5668222459641556
0.5435225811430707
0.5028458145624843
0.49902825130908673
0.4591543800217629
0.45899256650184606
0.43446565262255304
0.4507617319363565
0.4226642905896071
0.44368144474825727
0.4210838613533315
0.43662170457212496
0.42250667881030485
0.43777691291269755
0.42791959308934874
0.44703484218948814
0.42819410026452615
0.43822155292875065
0.4304383044719005
0.4368332251554442
0.42673979873127765
0.43557272532785857
0.43619663514894647
0.4339142588073785
0.430917475185702
0.4238500285060506
0.4320788008126559
0.42222521275593294
0.43457161068028516
0.41789760126545694
0.4272071900250566
0.41130264247188836
0.4296940053556201
0.4129029799872385
0.4325264486678468
0.409707355769194
0.4330338929509626
0.41667307364414813
0.42648192378757377
0.41790923310495137
0.429259262020642
0.41899898463147556
0.4292358418105886
0.40996091044931876
0.41744343801978434
0.4200600984661567
0.41953507063945417
0.42219738410412244
0.42124217821424137
0.4224094911830966
0.41718623407597305
0.4237023564309383
0.412308208514174
0.42312883707782234
0.41313108989286207
0.43380307601842116
0.41937300103819675
0.4313486603878056
0.4123591875178859
0.42636241987276974
0.417819159403502
0.4323217172576056
0.4186790681661126
0.43200010068214095
0.4161409518559906
0.4303585704547057
0.4146907687728129
0.4335189868238067
0.4257870702522208
0.43445315026985176
0.43346063734268225
0.43627896789822473
0.4382266035103511
0.44403128518216634
0.4482064593606938
0.4416210020814991
0.4494163016093905
0.4657044020432388
0.485956906699016
0.47552582805844645
0.47952953627395195
0.44992667778693934
0.44993793091880496
0.4257667966070809
0.4467961099072628
0.43310041926848164
0.44861218229426864
0.43199944180580807
0.4492253524487969
0.4398358620120414
0.4610621549859456
0.47937917340627473
0.5530182036495895
0.725402310099691
0.988825541477544
1.0
1.0
1.0
0.7675904693457
0.5298386224876339
0.49676786136837325
0.48039529299291567
0.4339249031392079
0.4370153392980482
0.40988182861965583
0.4181501795791284
0.3971916332653139
0.41522125800669213
0.39863910137736736
0.41855239063139005
0.40312432796707015
0.4219345704302297
0.40914226792007613
0.4316869870129015
0.4202469640382966
0.4453046576145045
0.43655580198743194
0.4503064345093998
0.4569819935092919
0.47571086316045746
0.4822591380585452
0.500946799520799
0.523650390443925
0.539282864040154
0.5614533800250874
0.5713960654880597
0.5976778868448819
0.6015709781021181
0.6283225951657159
0.6122603226507215
0.6065523218162847
0.567437380774382
0.5457878941430415
0.49556170123800836
0.4811478082338495
0.43312429948581477
0.4273577229938124
0.400692723250358
0.40749299724799537
0.3855188793334282
0.3980048687633377
0.37680535689374056
0.3901163053562082
0.38062819827316857
0.3850481217336445
0.3806584900633354
0.3882679796440708
0.39229743222814334
0.39197653880314476
0.39305120557324075
0.38915295700925673
0.39183319969794705
0.38275721761827314
0.38861485324127454
0.37663611866119984
0.38806328043065114
0.3773093764392077
0.39212747954434574
0.36628154529484347
0.38957899591069334
0.37788086364714124
0.3899079600502744
0.37400754240462264
0.38216381285141576
0.3711885704447309
0.37980338562988114
0.36556319228733625
0.3704307714945183
0.372822476263382
0.3803933410438139
0.37749354584212375
0.3786353059674528
0.3787450676380578
0.38259826500662325
0.3871203456846605
0.3773445708133315
0.38677262376044746
0.3771431742855534
0.3874699457515723
0.37236640323533815
0.38920090170349264
0.3711936827987708
0.3908296364378847
0.3718151796471879
0.3885769571497174
0.37166518018498007
0.38521409621611485
0.37305697259509163
0.3883560053661352
0.37480041388329133
0.38649222593608706
0.37832599363837793
0.38057891805413846
0.38347967077325795
0.38442046180407363
0.38555038732686187
0.3880292346326424
0.3893978697374813
0.38783930441835474
0.3990013364640106
0.39083979651444783
0.40042717402246497
0.3880070788521398
0.402237390552711
0.38977993583995574
0.411717518182478
0.396256133319992
0.40897128468905286
0.3833247596032162
0.4084707717310388
0.4190702083338868
0.4495301061424034
0.4347552081457236
0.44392593179884565
0.40992575986043506
0.41861862325428617
0.3932367045085801
0.40148432443715787
0.39564465718597763
0.4048021275613599
0.3957494517105573
0.4040022331738339
0.42036241136970975
0.4324948817270503
0.4660404725073442
0.5097892156452226
0.6542892109432191
0.8756318739509096
1.0
1.0
1.0
0.7753345410198355
0.5350476302507768
0.45579459406229467
0.46687360207184414
0.4117785160381451
0.418374340633571
0.3885397461049114
0.3982039995058094
0.38001855606549234
0.3904347574710901
0.3756661371777081
0.3798549626210322
0.3803484875132529
0.3797051654859366
0.3791312030257185
0.3892840060165167
0.388721630952719
0.3962115448116827
0.4040972432163742
0.4049108357251585
0.41879287181211494
0.42121413295576426
0.4454709061293899
0.44016141312559914
0.4711527909447952
0.47679896607159494
0.512387489240919
0.5158696217164247
0.5523401415984568
0.5524885670935639
0.5809437069307112
0.5862423278928712
0.6197090015259981
0.6083314694611444
0.6159816521132966
0.5827914679420564
0.5503051168911706
0.5059456706942932
0.48364169674339524
0.4474693260874486
0.42514112580891916
0.40356585110155496
0.3896966194347115
0.38265220106313425
0.3755881668977295
0.387110580978696
0.3724108841052681
0.38560596833021943
0.3710727199627402
0.3788745478442866
0.36593425020437576
0.38160156894317643
0.3748253765008815
0.3826387572200559
0.3721408743789919
0.39867645879040364
0.3820085479304393
0.39128489669127164
0.38083591753643414
0.3961491051248335
0.385211897493736
0.3999466391389196
0.393110599240089
0.39809667475484095
0.3965901633694654
0.3980121678363922
0.3982955606310112
0.39050857918910264
0.398575744719187
0.38441959175520396
0.3984303877212179
0.38698810575848996
0.400137935739985
0.3849397541866384
0.3978316901700689
0.3869468118938089
0.4006380588248993
0.3918227399240141
0.4033986534770796
0.3912895601004447
0.40344743397135197
0.39756902408489314
0.4036384744377074
0.39851451397745113
0.4052448518374418
0.39551385740509437
0.4064681731878153
0.39829530860835516
0.40440629781308013
0.40120374837707756
0.40020013549883193
0.40593323068578036
0.40812793949664217
0.4092777916103171
0.4047783995322745
0.40548895894598563
0.395401525844323
0.4147513123336384
0.3997605901365893
0.41362739873875654
0.40468569250719416
0.4150377912592164
0.3923613252049186
0.4109769207699257
0.39672315664388685
0.4196936084803486
0.4042780785611666
0.4138847310941308
0.40099461538241377
0.41025073347054286
0.4102627362847263
0.4133523659045033
0.41480761435324676
0.4154296233142505
0.42089170319157426
0.41561275333727854
0.42318803437286096
0.4319041871309112
0.44226314029492786
0.4486042560396298
0.4509792590833861
0.43476250897975355
0.4264859461508107
0.4073867170426917
0.42402241874312396
0.412770512582964
0.4241496810449995
0.4119228107680543
0.4207278794186111
0.42130676303471903
0.4315607018481987
0.42733824221369615
0.46533704425348466
0.4979215054753908
0.6016350293677994
0.8154017440099871
1.0
1.0
1.0
0.9785462293776167
0.6343699926671877
0.45854257296873085
0.4585538607738694
0.44041472294376155
0.40868203336497616
0.40322006822483647
0.3871595759491018
0.39114950145882155
0.38030634842644806
0.3900763005420438
0.3765728218129945
0.39023751317819283
0.3717778043133504
0.38518137799235663
0.37807636591931093
0.4000408181013766
0.3872592207725716
0.4049600155643378
0.39307345320653597
0.4139328150046562
0.41194663052411007
0.42352584066949267
0.42946414361967866
0.4472562177914069
0.4655848953257441
0.47324227964896604
0.49701822989492833
0.506697838302885
0.5293032241956654
0.5351638252464233
0.565985460772648
0.5782906741077404
0.6063165536056616
0.5973762222651832
0.6074227983106698
0.5768403723935835
0.5669501194075355
0.5299257808107118
0.5115851355411205
0.47271313927376646
0.46101508014906045
0.43186536176395823
0.4312433363801764
0.40281025374449053
0.40405878955723046
0.39086115728621734
0.3982535993137602
0.3922941576187231
0.3940937786253912
0.39118720861259637
0.3939738318240152
0.3898714738370003
0.3850685012623499
0.39593597864819907
0.3932017077918027
0.40630711707049516
0.39551047222815966
0.40647801742778167
0.3910193370287283
0.4031424466589998
0.38953671877043033
0.40537936480864445
0.39366636394818794
0.4052631895598557
0.38946522633778585
0.4030719447890858
0.39016334518600093
0.40215582281425705
0.3948666128828107
0.4038091456595123
0.39017899652250865
0.39923822932415637
0.4019229780444672
0.3980917005056309
0.3990538357644059
0.39691550484745464
0.4018544795480684
0.39808910484327553
0.4012075737065112
0.3920496953098029
0.40721615897555086
0.3952503157349182
0.4062963921415939
0.39302065794014907
0.4052689077111912
0.39651418781384457
0.4128062650958938
0.39696071810049166
0.4090792426908438
0.39262178539036274
0.4112419038822216
0.39639703896715456
0.41434240627088953
0.3991470596193493
0.41168174312982797
0.4105358822666572
0.4139774545494662
0.4058599856552614
0.41647976278279364
0.4129383457590661
0.41223163812932756
0.4174254415604188
0.41790374435128647
0.4218109078743493
0.4175777564100521
0.42432239704329333
0.4188042719874442
0.42702439370240697
0.41614613475364653
0.42905673788632176
0.42130064432134057
0.43495482162733606
0.42114424384740834
0.43653213619545816
0.42535760639056763
0.43813607627919177
0.42472236639709493
0.438758927935056
0.4320718569716112
0.44626900641633177
0.43370625306657795
0.43120154089707874
0.43268152280460337
0.4664191919778934
0.4743967322615455
0.4719975472657483
0.474850069673347
0.4677671191550825
0.4549628267602258
0.4428194052851083
0.44719556596060916
0.4410662419023715
0.45797351356926896
0.4447003207139453
0.46155366683082394
0.4538832971616743
0.4739106834021055
0.4738577779508459
0.520964490395784
0.564960468973179
0.7310645928353384
0.9188840337503368
1.0
1.0
1.0
0.6816656722790085
0.5043495721781739
0.4906349425557683
0.48312264791884074
0.45532776246929163
0.4424111553565807
0.43595985572276347
0.4263763673694583
0.43423817542436643
0.42774639652229524
0.43732932824559584
0.43183115089121893
0.44048008274197004
0.43688854562328183
0.4492165157200806
0.442497386430861
0.45930742428000737
0.45120399620197915
0.4648377647685843
0.4625170864092176
0.4834936717924087
0.4803421906074553
0.49657187338385533
0.4919782266208662
0.5233663818948184
0.5338992877628246
0.5611271856813553
0.5717426923736855
0.589828441916447
0.6113420281656519
0.6244969226417495
0.6325327395737139
0.6274171048744316
0.625187293685067
0.6031449943082092
0.5830914179283966
0.5447911642130484
0.5276176817160424
0.4879241374706008
0.4748455939129383
0.4455049476632776
0.45062451766346107
