MLII
0.5
0.36510184810468094
0.5
0.36510184810468094
0.5
0.36510184810468094
0.41461990840951746
0.23605650356190977
0.47229762050081037
0.5425203282471693
0.5101639127784966
0.17813146146820807
0.5674490759476595
0.860007176125022
0.8019370979131054
0.5787055864272337
0.6585902141427808
0.7972369848718452
0.8594777077779865
0.5842896604658457
0.6109895218122829
0.6945228814063708
0.7112488794614814
0.6150493028556645
0.5911807895902936
0.6773772187973505
0.7035083935544367
0.6355973104168151
0.6057253826258238
0.6601474181925822
0.740301546853231
0.747345310802424
0.7392811276202222
0.8003263934304051
0.8717807554210373
0.7995111723059448
0.7159399709273389
0.665168006933511
0.6695563261673045
0.6018084381479644
0.5340712158471057
0.49405634495420214
0.5089559461127077
0.5027756548299516
0.4523975188397138
0.4317486157507223
0.46198901739659004
0.45750838616836165
0.4044984336046575
0.3969474327282166
0.43305785232616933
0.46081543252559276
0.4184879684196955
0.3788361816846697
0.4059003605503593
0.45081035474530173
0.43727703024435627
0.39163328935953756
0.44966602224734764
0.5784655672460299
0.5861046217842711
0.5552147226434905
0.6347613316534566
0.7202662149121493
0.5880248773776863
0.4816315966063742
0.4979990893804901
0.5010544523310347
0.4423214097583757
0.28980363923759556
0.2456302886173091
0.3044139288604404
0.35500678554304715
0.30703503151534906
0.3185548545533532
0.31598281131374806
0.19873924506369223
0.48223263087003554
1.0
1.0
1.0
1.0
0.31333933534852754
0.5929492115191134
0.6929683851619537
0.49174111718425506
0.39825049774231286
0.42744364176109195
0.4293752227578024
0.42789084119297555
0.39661038457649217
0.4087171077064052
0.45369363597946943
0.4595941459173812
0.43004669173018567
0.43425895007944393
0.44729488771193376
0.46273570833494304
0.4123520190167592
0.4281484642317183
0.4822727212061017
0.500306355751615
0.4986464542441634
0.46927004256266314
0.5086814644584207
0.5542213614801869
0.534767552148214
0.47323930278387694
0.5144240049279776
0.5780348410349526
0.5571664068442704
0.5599572738283185
0.6561506374295389
0.7148996858183438
0.7273285707552155
0.7088345295579405
0.6923547054843256
0.7280514204808357
0.7070882878886339
0.6053670434473917
0.5628284560112957
0.5618330211451614
0.560541210433398
0.5280133525509771
0.46901410728845594
0.4790644793297191
0.5006763288038893
0.47494122543847556
0.4423740925205353
0.4726089742092622
0.4916312758255357
0.47954184153342166
0.44503727922798914
0.44341064522503204
0.4583340174128443
0.431324468334825
0.38329008472855747
0.39806826378207905
0.43121172303171174
0.4372723473004223
0.4303636894325697
0.47597564984989865
0.5603372111411128
0.5844976305272448
0.5865855200264926
0.6280628221138869
0.5935250329247548
0.5251528469976867
0.48415916185116803
0.4680562360301517
0.4918702559610101
0.39021029199115953
0.2957767082217692
0.284428327627455
0.3320291603190785
0.36372593580752477
0.33957263883171207
0.311483882882436
0.20102445715012313
0.3432702797739394
1.0
1.0
1.0
1.0
0.4694810263523145
0.4885343412835823
0.6344767047406481
0.5481507673845801
0.4325509240523405
0.36228271338795903
0.3935314955507798
0.42236465809516
0.4209205468456192
0.3681394255252436
0.35692735524090075
0.425836886355095
0.430106030511456
0.4146121258060684
0.39741980658736586
0.42678871346416586
0.46975001685552603
0.4658781623136912
0.4389030621639541
0.426815474883374
0.5046272049452665
0.5332163678127463
0.4840104936249155
0.4717314452222222
0.4895966478161329
0.5328253747838917
0.5035611626769663
0.5012531391551136
0.5242023598474868
0.5427114537586243
0.5274574930980147
0.6069904875464285
0.7153007907558582
0.7338030770911583
0.6947984851198529
0.6473789918244302
0.6767659761743765
0.6494473283630379
0.5753131734234888
0.5298476509902781
0.5384030856125525
0.5218688823497815
0.48190063465755734
0.46129013047329304
0.46698261300714805
0.5019167484437534
0.47658602685161366
0.42836363494474394
0.43345724301218447
0.4606810135376018
0.4464434936604388
0.36589571066527016
0.34727755500844804
0.4506668728390871
0.4364414029484493
0.3811470235482975
0.399857392363994
0.4346227893830088
0.41984366814190077
0.38248044085730915
0.4093524343955819
0.48200940364626516
0.5107787425510786
0.5471254548812707
0.5701133377677737
0.5565817178348448
0.5083197041098378
0.49832168955458933
0.42312922766506356
0.39125014858303514
0.3971001811869227
0.3496082008344385
0.28666437441714554
0.28882918854647677
0.3216009634941316
0.3518064173585842
0.30283876602478943
0.27052087940222114
0.20385089378854282
0.6330661427103221
1.0
1.0
1.0
0.7961559142144111
0.24037293183151293
0.5092267910576738
0.5465623567173663
0.477169098223723
0.39298021584907944
0.3562077244299851
0.3684437372184218
0.40254992578887616
0.3862768531101093
0.36662622466890527
0.3523745964688311
0.39395486389813755
0.396674033083755
0.38885675414894927
0.4029046295773148
0.43514303142142713
0.45042384742650177
0.43998069458505534
0.41754930815224184
0.45236872811936985
0.49149953094597515
0.4709794983401114
0.4511000736998542
0.48160258779517695
0.4894710409119466
0.46811150707617577
0.4487751950748383
0.48711984563019006
0.5314392706268893
0.5508558608340515
0.5587501308757485
0.6303036059121163
0.6801481495555105
0.6694717234841832
0.6314942958990436
0.6115675951780761
0.6096462849456193
0.5754247099952146
0.49969808743152566
0.48554489861426103
0.5042925683643699
0.49208434452121985
0.45348744914104044
0.4581303478135415
0.4820497674021559
0.48626609498132034
0.4456925535127704
0.4239868033822759
0.4604827107933528
0.46075217426821863
0.4223316633171515
0.3879480550870996
0.4322371024056709
0.43991509735003687
0.4176849867854207
0.390701803161822
0.4153069824397361
0.4597353459540239
0.4916774827065276
0.4918400396671238
0.5368280181025836
0.5846335242010712
0.6661234030721201
0.6139358862945212
0.5224474597496448
0.536423508677077
0.5270258295299957
0.470666990076419
0.4000343823656567
0.3640141087245928
0.3600957163217716
0.3513974356007027
0.33935479714917716
0.3815926741189373
0.3820949972832166
0.36612174838915773
0.21943651192320157
0.3400435704079736
1.0
1.0
1.0
1.0
0.6091235677151865
0.43370632988637886
0.6431302274281497
0.6195371578561872
0.5443072963766773
0.4829751585130248
0.4407872277749091
0.43234492228943255
0.45811526542219216
0.46802878998304615
0.43638883222772273
0.44280622875192704
0.48330839752444216
0.4977505189013326
0.4675178235462063
0.47134937856192155
0.5174999206943107
0.5347880931408103
0.4890737897245711
0.48634456959920225
0.5640413135755304
0.565332288412537
0.5464373800191779
0.5321388330328952
0.5818403996948496
0.6109062999399166
0.5830420525789827
0.5602714183010915
0.5894316005521857
0.6197832364611028
0.6048321485709431
0.5960900437593378
0.66423954507781
0.7420182063856954
0.7640537268039
0.7428653742250844
0.7497744016864409
0.7519913327125287
0.7259066892498669
0.6448189922444652
0.6169393665780494
0.6146709585073575
0.5895461546833609
0.5423958805237004
0.5250919581284457
0.5469208899345965
0.544279842346487
0.5193642518362618
0.4827978757353334
0.5200682099936648
0.5418479292364531
0.5050593512696367
0.4739081671327073
0.49453844816084735
0.5028695253442739
0.4947195148356708
0.4330962828204955
0.45168648620047547
0.5090050974002142
0.5182392515113172
0.5254112119557984
0.5788194325127296
0.6399036952439305
0.6346538985984794
0.6446574780131504
0.6683302584925305
0.6144041346825823
0.5828327588266453
0.5516768372638223
0.5128765295091708
0.512556941905246
0.4599145189779706
0.3604867757288822
0.3438318455638304
0.39648294431772674
0.41997976384625463
0.39750795213742995
0.3930910353591833
0.36709579186553076
0.30698706561797506
0.6209374397843428
1.0
1.0
1.0
1.0
0.38634513609215837
0.6155104310510593
0.7277386477790182
0.6116133222578368
0.4918009315616635
0.47598073920591794
0.4922604073656158
0.48764165238473345
0.4485556261770389
0.44564634137962206
0.4949864133364764
0.5098824883552447
0.4903140479927558
0.48242597523684766
0.5190159985970457
0.5477516523451469
0.5251153938826182
0.5097012387160962
0.5254843821674928
0.559956192862799
0.5492494620083499
0.5380594290013516
0.5707339394602061
0.6088030559933213
0.6126350718646241
0.5691167909187911
0.5981525373519336
0.6389113394775215
0.6348346391545411
0.606718772054078
0.6185589435503623
0.6983643920306972
0.7473991566629122
0.738310503920826
0.77460539693159
0.8254804567727858
0.8362044479565516
0.7586946768224414
0.7078841474630395
0.7051160970866531
0.6755782031119953
0.6392917970200559
0.5726068225199121
0.5898073505337212
0.6139021058513189
0.5816850269014162
0.5366760797004717
0.5515070869710439
0.5644817053117385
0.5674490759476595
0.5224395226897668
0.5120916533029803
0.5480236021067136
0.54123176243555
0.4954620056684382
0.48554934022357654
0.5044705739606447
0.5004330927833163
0.4870365714911141
0.46760676610457785
0.54467957215553
0.6043220293489646
0.6103593903181612
0.610229021551788
0.657336400269279
0.7376712810245383
0.6683691053310985
0.5761045459318279
0.5873972183421062
0.5878561596612624
0.5464772934536909
0.4437494733982465
0.4026484331159296
0.43068880481177396
0.41130777803509255
0.38818339530682067
0.3891510395658636
0.4285643852717313
0.35621337507902884
0.32781521461220864
0.970915844988388
1.0
1.0
1.0
0.39101715849407953
0.6442839317721603
0.7808405156951338
0.6043314720324451
0.4843278803685228
0.5154806838430457
0.5180151840729754
0.47504124906187195
0.4549587769272246
0.47968092405383206
0.5125947102357853
0.48836315691963283
0.48887801565653727
0.5121124393293651
0.5766712377358179
0.5674780355176651
0.5381229975943869
0.5523276917971331
0.5871200736957639
0.5796524699557432
0.5748432517879642
0.5831728819714301
0.6471461311841515
0.6684518066203935
0.6351921918915597
0.6147831114258936
0.6614733876858847
0.7028010727243897
0.6760756764773606
0.6649521734799837
0.7322323323099678
0.7939843432932808
0.8272546001995306
0.8379085848998381
0.8394621807685372
0.8558656161460416
0.7881898647453246
0.6886090061066334
0.6877636298926297
0.7099882603187251
0.6643988882709188
0.5923331003668896
0.5841634899780781
0.5940897998476207
0.5779252170315197
0.5457669963630797
0.5029285251745261
0.5310214546627818
0.5468531391196503
0.5255707750287121
0.5003060114545546
0.5219426955975364
0.5241627101754716
0.502318288732479
0.4772268435949013
0.5112535115000023
0.5153311640378007
0.4878938707636145
0.49066139711966744
0.5468001359224404
0.5973230718243513
0.6050818584044675
0.5844805653410934
0.6647357750522425
0.7017570141329674
0.6300118012012675
0.5600120384825731
0.5750506892317243
0.5862048889024134
0.5415678439135497
0.4455610743343555
0.3944269646814799
0.44047245129004786
0.442085775412817
0.4190809479205
0.39909415142595667
0.4365551828411611
0.41607470839549965
0.3320388599602569
0.7768190594734294
1.0
1.0
1.0
0.8886816414144567
0.47674308642478563
0.6744812737323073
0.6548937685213877
0.5403857532463607
0.48778777872547724
0.5084617597858909
0.4862858754174254
0.45423297612428143
0.48401505230316866
0.5283432653187892
0.5051923092551739
0.4813910506738984
0.461953896803846
0.49963532248652537
0.5320362060660502
0.5235169834510753
0.5133895632546392
0.5486577035108473
0.5903895308103018
0.5700656708271723
0.5316579308887561
0.5402331589635505
0.5730963078620871
0.5588629236709548
0.5076903045780058
0.521195339064037
0.5950702699615412
0.5984267668492854
0.5597063051550412
0.6186435754812927
0.7121184592750053
0.7505297238493922
0.7041919207234695
0.7194300135782523
0.7258395414947076
0.7165857480618271
0.6633659105121634
0.6153938168144581
0.6086709290067585
0.6116065725821725
0.5607474812260593
0.4978998854259804
0.5668976881825982
0.588614800974175
0.5374497174715762
0.5169198844594025
0.5205774394749659
0.5252905161654837
0.4800682219714064
0.44660964026514094
0.4865101894131622
0.5165349552377267
0.5173196001930965
0.4936857993541829
0.4593104786908597
0.4841644359307642
0.4973151290376531
0.5303886057064685
0.5733405112006095
0.6126248989531824
0.6696234857523707
0.6638531135917833
0.5780670933347298
0.5760231389277847
0.5823872935105493
0.5090355958610201
0.45875409111121124
0.43427673664504624
0.4047775651171711
0.3932696392133471
0.3841437210919422
0.417909278271269
0.4431388952005147
0.41559871799579096
0.30556400901864283
0.48774848381327934
1.0
1.0
1.0
1.0
0.3628847988200576
0.5151316843917123
0.589141900678326
0.541636392722899
0.5228343374322831
0.4751434967406742
0.42217612136732063
0.43018361073719086
0.46465877576359765
0.4969289407245169
0.4719254791248634
0.4765548038604618
0.4959136118306879
0.5191767874996904
0.5043956166991895
0.4794410351612332
0.5097647423328449
0.5534853446056518
0.5552702009495274
0.5302119973539445
0.5655750266814429
0.5941150115303195
0.590355419885354
0.5356290471907242
0.5574936276673981
0.5919272619096936
0.5901393008583524
0.560917107279125
0.5856214781567332
0.630441274337722
0.66648866257656
0.67588349768236
0.7011054910248882
0.7698040220577251
0.8042800222643655
0.7756009990820051
0.7383610009412337
0.72478936844712
0.7153882761550057
0.6802331481112776
0.6218420969793566
0.638359394708094
0.6492367827617928
0.6284854230386488
0.5889741396535012
0.5969367853234077
0.6439418999201696
0.6335843275528593
0.5972948769519918
0.5955963567925229
0.6251243105418938
0.6270686645410576
0.5895728945016266
0.5759662144783961
0.6131524274061975
0.6128172757917582
0.5638918709671887
0.554413579540025
0.5940582598906661
0.6242070400113546
0.64663461161338
0.6676634980110085
0.7091425245976609
0.7468502962672898
0.7775694193899458
0.7363803057549863
0.6889930058218681
0.7041752312974854
0.6502694067946452
0.6045892004710773
0.5705920905479948
0.5481213815136968
0.5280423974489914
0.5034554621453441
0.5283366680003775
0.554824980514766
0.5585497625248678
0.5409889213276908
0.4566932229968438
0.5477397315200536
1.0
1.0
1.0
1.0
0.7576828848043087
0.6368169860447909
0.8003275308648015
0.7638646283478099
0.6714353604378214
0.6204793689806624
0.5779679064944878
0.5880837584258863
0.632863828367449
0.6122885816326141
0.5957036216362772
0.6138082460290133
0.6355158816130381
0.6351381516847752
0.5985158778184887
0.6162919166971664
0.654024932192841
0.6556732227158634
0.6308222601008029
0.6437021125595421
0.677388168118308
0.6863710920128566
0.6605517247954599
0.6599768105536525
0.6958681885335729
0.7124678469448987
0.694220544938578
0.6872373320917066
0.7309296137983617
0.74752323598482
0.743034660582265
0.7332181509908672
0.7863755973752069
0.8418429186213219
0.8516718644025734
0.8470774188854853
0.848879445599019
0.882629596121132
0.8508539737510926
0.7818967670691463
0.7690119148406012
0.7768911318327351
0.7315932122183214
0.6706255603804788
0.6714275980826576
0.6670912438519215
0.6749933023163102
0.6360984641788278
0.6371551002390862
0.6505033319342479
0.6495184214764544
0.613307983780105
0.6021190073446844
0.6227618775322168
0.6344878643400492
0.60579594892926
0.5817308545252057
0.6036049221999831
0.6212727699046996
0.5868230029040201
0.5468179405386884
0.5778875269408807
0.634423901590968
0.6682220013855966
0.6612629039607916
0.668272242275224
0.7342832689598383
0.7677448753621848
0.6955997375001091
0.6350032049633906
0.6463034013422075
0.6383149617538301
0.5653213171832707
0.48136890057444015
0.49253062425468014
0.5354387139436039
0.5163198894544992
0.4967152059348857
0.5310670160390137
0.5492328401917698
0.4675515892623845
0.4597282014814059
0.9491833905448281
1.0
1.0
1.0
0.6203265185502941
0.612916825358354
0.7852911502407554
0.6701810110066575
0.5777448962876996
0.591131511568565
0.5865543889765059
0.5474271538754543
0.5610431388885633
0.5861090123316114
0.5870986782395862
0.574471035462237
0.573634360987006
0.5910201553991901
0.6149237255762066
0.5740160176806048
0.5677608310601402
0.6095324113538471
0.6494815187108886
0.6230238791014919
0.6215619621084827
0.626994700544416
0.65670759659383
0.658820150069385
0.625773263609335
0.655175378190212
0.6870306497782193
0.6763001020557877
0.6563302392114456
0.6670789981151302
0.7151803449496555
0.747896368500427
0.7508421229070297
0.7615569830519168
0.8027272711211577
0.8001234449962915
0.7548486855211574
0.7117777178357017
0.7060415528382353
0.6916834926391976
0.6536609969241779
0.6074569031611243
0.6107744094492584
0.6300128878679205
0.5993255686265996
0.5581140075715323
0.5869248607421785
0.5865801397023127
0.5616022897927163
0.546733481404134
0.5574337708181961
0.581734099487621
0.5646416010507697
0.5306395863770296
0.5251271358401002
0.5427339988009332
0.5454616777622702
0.5135490515458414
0.5171203707907309
0.5534983130951141
0.5886442029748747
0.5906796362318203
0.6029543832259825
0.6295130796837649
0.674828642660557
0.6998279784628081
0.6320344989491751
0.5898200331501969
0.5978970447874338
0.5751912757768362
0.5373757627183382
0.4991610432277647
0.4936929961482063
0.47982184153694707
0.44895263647884126
0.4830145185070177
0.504068883687418
0.512286069066626
0.43404488559262033
0.39901838815215296
0.7243994013398773
1.0
1.0
1.0
0.9917669077779496
0.49546468646370406
0.6526044055027896
0.6594907221774762
0.5822856071079694
0.5411087332152942
0.5247753954989479
0.49659818313433596
0.5147752881474694
0.5375951837960191
0.5215442737548653
0.5167809515211518
0.5214706420659888
0.5389122893199524
0.5455532608712732
0.5224981571699556
0.5337783686246591
0.5678002440430773
0.5811548781820491
0.5503298099467862
0.5648943652911023
0.5934665824986719
0.5962487364829613
0.5742012300792284
0.5600281802042198
0.575785125913417
0.5687042565463825
0.5350672032274998
0.5400722179620124
0.5911002996963236
0.6273868261806562
0.6250251152697291
0.6139203729907695
0.6800404059132134
0.7367028312814738
0.7459001219534953
0.7298688119069128
0.7163304935636526
0.7139443632503282
0.6769680284903886
0.611290878723673
0.5980520557746826
0.6064216010436766
0.5733497286576051
0.5319082322060857
0.5273497688766262
0.5500092121890308
0.554861044761045
0.5201178290076713
0.5228397520064157
0.5263670844352165
0.5263102909933666
0.4949928048158835
0.4847442285186744
0.5029314915506153
0.5171062542332956
0.49080097578554227
0.48057742891967303
0.5028994615369469
0.5353709387149587
0.5276154005251501
0.539554210689529
0.5730144596593205
0.628649088241845
0.6843268471601428
0.6136560455120754
0.5408739480686993
0.5281425969014694
0.5369340693364921
0.5034468601164203
0.43809637150937275
0.4331739321461475
0.44508128781387635
0.4236903858357318
0.4277771166594738
0.45757823114576934
0.45964412502572805
0.3593366605577885
0.3998103979431219
0.9769688172652626
1.0
1.0
1.0
0.4603745506432605
0.5959513606902974
0.6640582106364127
0.5303051759875638
0.46465700612801564
0.5082556687130424
0.5070695097356054
0.4597208842960683
0.4614076635067471
0.5004871251039018
0.49967135452569583
0.4737780172038327
0.4598822987040988
0.4964014589109461
0.5385893174795238
0.5282188584793626
0.5029994515878083
0.5565518996397711
0.5426694688423528
0.5036190988512517
0.49323129521862363
0.5502351595303492
0.5568407788721119
0.5255042220103932
0.49900483840072446
0.5358099983949173
0.5814809030456437
0.5701865359892897
0.5368059029528547
0.5422983932710942
0.6206398217423316
0.6502217355599649
0.6680926200103063
0.688898034830179
0.7189837071595846
0.7151677826085111
0.6766304003770143
0.6498136965354584
0.6402380036943633
0.6156189040799156
0.5783705339082712
0.554218597254467
0.5606213947712932
0.5647901272609314
0.5262749454542412
0.49017899452064284
0.5315762990479646
0.5613397571965134
0.5097329452195251
0.48625232703219173
0.5007779127479429
0.5264641913382174
0.5194210350140986
0.48215714877268717
0.47021318328511647
0.4758382127966992
0.4801164104888927
0.4559227361098509
0.4320746959516537
0.46718188029343144
0.5580936833565072
0.5721523469265903
0.5331355959273151
0.5770729445153332
0.6241776218914611
0.5837187104734733
0.5551002160619676
0.5379329308429128
0.5191916646290149
0.483762302513351
0.40492698981443953
0.4063239385057539
0.44138902544008574
0.4138994848751831
0.3981391742280868
0.4141177956972891
0.422355888066133
0.32509442214517714
0.3458929084169232
0.9311937460419688
1.0
1.0
1.0
0.46483542366594255
0.437343047105606
0.6133298673657102
0.5375955226856353
0.4552345494710706
0.4835000426378427
0.5031136646491285
0.4523614215384022
0.41997925691068644
0.4309688127905888
0.4667908864516094
0.4641953837930039
0.45132046132728254
0.48225041617154696
0.5060544425062592
0.5177256754833296
0.48523138585179104
0.5088355080670387
0.5352437467977322
0.5304021079266208
0.5116589291706214
0.5197073393474196
0.5690716256546142
0.5426634221917255
0.5108728539134583
0.521637272999724
0.543107116679551
0.5453494393909636
0.5141835576627283
0.5124081861176858
0.5610762268600321
0.6081079074651725
0.6363523211239217
0.6514745400554608
0.6805862783662107
0.7140097926680525
0.6655001229522789
0.6130769778108974
0.6240469705845317
0.6242443102244002
0.5610710404955214
0.5314453825503173
0.534535425022524
0.5444222816099507
0.5350202107087935
0.5072934706784731
0.5201877098183447
0.5421997512139847
0.5220679186614309
0.49213106973068993
0.4815229737172414
0.5008939389917597
0.5119804850243168
0.47279212536085496
0.4717676738063372
0.4907406522969325
0.49645284699676867
0.4755326884327089
0.45693408357729215
0.4942139600309899
0.5462142310382988
0.5775445200498212
0.568932673210922
0.5924970838691485
0.6704247678864255
0.6682741468636905
0.5897037863373347
0.5801770055146738
0.5945503775548365
0.5655157364436108
0.49091205347412775
0.4468655104396918
0.4536630149849851
0.47231368615525404
0.4498637924891251
0.4506562598303712
0.4933645129161362
0.47568437176701134
0.34329654923541203
0.5018442205097402
1.0
1.0
1.0
1.0
0.39608320955429804
0.6843648814653902
0.7246570612162119
0.5985738723919616
0.5599053916054323
0.5841364219840269
0.5546698724426504
0.5161218051968763
0.521638249239374
0.5725450861896446
0.5596070681835621
0.5311349717864662
0.5520586579996113
0.6022412911309156
0.5956936981931755
0.5747767606201905
0.5742644851090832
0.6122723952404892
0.6139083352893998
0.5898403850448614
0.5799018820439903
0.6019617987573358
0.6173742225148519
0.5922189931479487
0.5712022062288241
0.610044664159538
0.6175514016304294
0.5944126028715967
0.5950949323572212
0.6341072189589643
0.7138539761573389
0.7441324167894056
0.7426174246122994
0.7727576657240658
0.7917450511720059
0.7631803255273633
0.6959266486232645
0.6818297505448647
0.6804795512025449
0.6571214686012211
0.604384565742338
0.5919885551243417
0.612038018688223
0.5976124841953687
0.5690468760192822
0.5596879267517552
0.5760522877412758
0.58501471554258
0.5501774782627866
0.5239866004967803
0.5530775235619954
0.5560328220650448
0.5301156060261119
0.5132042387336073
0.51434884459537
0.5419287221104824
0.5103622432894585
0.485908607969359
0.537527918281821
0.5970274847133004
0.6276026638099039
0.6043087148181413
0.6453098723405175
0.7289699409276487
0.6896993860212179
0.5924907474485329
0.5788006047339823
0.6039817037279517
0.5813123901325515
0.49945684996834716
0.42217572492972666
0.4602770495671817
0.4753578148319869
0.46752635702402684
0.46295145090954737
0.4851505832386781
0.49475709360365816
0.3934756688898834
0.40451286101689626
0.9282403039970925
1.0
1.0
1.0
0.7449533103446381
0.5313936841093849
0.7376397566801058
0.6668199788281308
0.5655344691110908
0.5534828229490907
0.5539644466593683
0.5101808810424614
0.5001595882622728
0.5094547242931601
0.5251487493620292
0.5253584744693994
0.5198761270970296
0.5449713061156756
0.5714609229978078
0.5498570958778366
0.5481830549892088
0.5593254954604534
0.6103431778128053
0.5993729727221064
0.578217451190825
0.5944364586641014
0.6244880898204965
0.6079231626994653
0.5857149290863356
0.6109092565611894
0.6384883081335225
0.6246299259808309
0.6169642982062686
0.620823022752887
0.6503757431467694
0.6774149070662526
0.7101327999278266
0.7402513360910564
0.7861179002672639
0.813232797150296
0.770326178293433
0.7362048225065964
0.7340018028979938
0.7234008376064316
0.6797613113923899
0.6321797131065869
0.6367918250962736
0.6505703901416171
0.6213858375830538
0.6009580455314862
0.6043861310746089
0.6300859680377121
0.6039126829484911
0.5787321849073959
0.5849305755871138
0.598476130160933
0.5799751183570343
0.5391424488980379
0.5424528618739349
0.5614072218809805
0.5587609867087628
0.5213720951206403
0.5196053057129643
0.5490594342753623
0.5650628025808289
0.5676646107008689
0.5758986777998076
0.6446048071666872
0.659959181648155
0.6760975106047675
0.6902657264111692
0.6583335637703636
0.6194369662020482
0.587904866786795
0.562570867701981
0.5518308232467263
0.5222548645484458
0.4774649082817179
0.456728282358815
0.4694944517307701
0.49436808726403336
0.4899347383294333
0.46704052819496883
0.4112655851706652
0.40080329969644835
0.7358378470949463
1.0
1.0
1.0
0.7918375435031819
0.46310968754228155
0.6751368027710234
0.683608198812475
0.5900692695443924
0.5214109969808599
0.5121418633089407
0.5169008183565224
0.5182006918410084
0.4998306957101324
0.48890964097770073
0.5159938497800525
0.5484562889640566
0.5553047883811761
0.5325659432198934
0.5341755487567241
0.565172000912914
0.5787417624563544
0.5448843079170518
0.5484466190020422
0.5722161741121272
0.5757383798511222
0.5600959115013768
0.5519903711744993
0.5944454174451889
0.5934944643174593
0.551148761088191
0.5535314156920738
0.5801726467760101
0.5993628113170923
0.5928328687414861
0.576285500352639
0.6125379736437433
0.6678395989097742
0.6927961090855933
0.6944213671712272
0.7305629840422989
0.7503975082993286
0.7181672518341878
0.6523022247035568
0.637985222277023
0.6396332487183903
0.5974638539214386
0.565270499545929
0.5497769968522072
0.5777859149241238
0.55815863753684
0.5325767649402002
0.5263841885198685
0.5297859277715917
0.5401898931680745
0.5067218722891338
0.4917171225342356
0.5101693951700308
0.5145174092918722
0.5157804097705398
0.49606346729269823
0.490831896346862
0.4981631969453918
0.48468587413628333
0.4533543085653767
0.48047797568698236
0.5433233831133805
0.5786348231061418
0.5701207763579703
0.5824297948802848
0.6760951658274708
0.6604485817337533
0.5397354044883585
0.523029079644787
0.5553962085601524
0.5290912809533136
0.4609534440684513
0.4188863887951375
0.43871360384508973
0.44757806036913167
0.40677181318824857
0.410990508551824
0.4471321698615891
0.4091262535937904
0.35030218367002963
0.7607623599598683
1.0
1.0
1.0
0.5490221816330645
0.4817240956244338
0.6733968225358007
0.5952210747090599
0.47546411162024105
0.4331427487603537
0.4606671748986959
0.46386349820502176
0.4250342585122591
0.42158558925942025
0.44577735286705045
0.4707462686546836
0.4591026797723111
0.4698929548703205
0.5012767037447012
0.5155421639645115
0.502990816778106
0.4952841497961608
0.5139064200962583
0.5366686240916355
0.5107839473016903
0.5016563329293203
0.5182096336486263
0.5387675155893216
0.5352623615278216
0.5069988743624327
0.5134683143850244
0.5496258877422451
0.5678796894570965
0.5370213840221706
0.5536897153170501
0.6133434016135211
0.6438624065825614
0.6677564240159869
0.6865871881778041
0.6936374020491192
0.6764933731834533
0.6106995108600412
0.5736816914179795
0.5992570584377936
0.5735452780402888
0.5376334267732845
0.5111955454202572
0.5157628913846458
0.5318623113358643
0.49497878376465526
0.4562438009481696
0.4866526327197899
0.5015848621265855
0.4758860164161206
0.4550075705754296
0.4539168044417535
0.4770596740153497
0.4568063213343835
0.4276350680690384
0.3978231436424197
0.4313768002828466
0.42695472428217185
0.40203857369635543
0.4232142622741861
0.478442366723263
0.5316930285243225
0.5101189047839079
0.5323858107840443
0.5990586725117579
0.5913950982044417
0.5173869558276232
0.48330356268523156
0.49422753049896684
0.4868864364453545
0.4048321291365159
0.3593667988513811
0.363447450856951
0.40094427358181156
0.3903709101324669
0.3560049888625634
0.3725714789829425
0.3871105495452367
0.33483078103990244
0.5495298893177647
1.0
1.0
1.0
0.9611746756459265
0.3867127515413085
0.5337330180061305
0.563426837543443
0.45469363975455723
0.42082701279425444
0.43350580542190886
0.4270274691544267
0.4130385381506909
0.379489310502657
0.4055766092379208
0.4386390906782898
0.4245571813647701
0.40049105621217745
0.4333533437545006
0.4772214395027444
0.4698352203684298
0.4304579746252223
0.42757691135440296
0.46178788410025495
0.4746117428510369
0.4432546125664591
0.4338249002963523
0.47670010532967205
0.44793353115199414
0.43120102906173924
0.4553087938201113
0.4650414630864109
0.48692730373978843
0.4731658843703165
0.4970291256706071
0.5498211876931921
0.6098458907987506
0.6132005160149954
0.6029869525405676
0.6327353154566764
0.6231863527470427
0.5715942210665407
0.5458457880599261
0.5427743371342764
0.5383304014783076
0.49717494254941774
0.4643181077551534
0.4598801339783086
0.48762292664781476
0.48153481277850696
0.4513840047762653
0.4456440692004205
0.4675366453248867
0.45892881125289753
0.42922079571308513
0.42033116384070174
0.4485609585022803
0.45063230080642125
0.4201926698234949
0.4054402725620535
0.4277326626057093
0.4399752268046252
0.4245828155470096
0.4424404433067145
0.5050719126713685
0.5384558875038385
0.5313959070260392
0.5616956713589717
0.5791060124514631
0.5405112240867801
0.5126288319854746
0.4707481316139101
0.4628077741906256
0.4409967447582305
0.38448668065652736
0.3599211000127468
0.36886314393719777
0.4147742997724662
0.41524261612564306
0.3942330174717993
0.3759333541216948
0.30975650691964757
0.41976527440996597
0.9984294830279759
1.0
1.0
1.0
0.420982256218155
0.45740471138018196
0.6037898942625178
0.5552646118421259
0.4776197242185104
0.43094935516819166
0.44783486223695307
0.4681089157794728
0.4511164139503626
0.43393118367569816
0.44060370759295175
0.4592986099641774
0.47055796754155477
0.4423310217921256
0.4681201273718396
0.5102124756682461
0.5189358031377191
0.49352060413784093
0.481430149710732
0.49873988042113043
0.5087457277803921
0.48639755719754046
0.47407629578981575
0.5092799713688946
0.5127358075339442
0.4967183783382524
0.483963032694938
0.5010369368199843
0.5095629923311666
0.5039741586341733
0.4922634187565542
0.5338906686534727
0.5939116308211718
0.6208388427618983
0.63129098822257
0.6468745388095889
0.6780319196176375
0.6572230902697507
0.5996091193483147
0.5834923838281894
0.5851509937954089
0.5711122039701367
0.5399020412241636
0.52674756613034
0.5401582506030688
0.5394232549338257
0.5160217348251467
0.4937343108629033
0.5138364047501582
0.5291709296007773
0.494978163239521
0.46976196736156395
0.4735920200850942
0.49743054244350204
0.48600418564333703
0.4704144432120373
0.45118811772806344
0.48830294256836676
0.48730638763400747
0.45472756034789547
0.48717189002891625
0.5569612468411855
0.5846392029731409
0.5624840737810793
0.5904704508189742
0.6632577212337815
0.6164584775899306
0.5288870313835432
0.528252560418355
0.5201508605811922
0.5137375050698819
0.4432911085193096
0.39447453990864617
0.41967558512025543
0.44792968216470913
0.4194439130423847
0.3967835592408597
0.4140829315197555
0.41623055150329924
0.3365675569949852
0.44393143874367597
1.0
1.0
1.0
1.0
0.5295470742950202
0.5302589469375605
0.683622966169351
0.570113293987072
0.47887304007435355
0.4943873700594198
0.4941768850992587
0.45498595111818185
0.45334955289081746
0.4833863516921488
0.48912379209523876
0.475770665332495
0.46168341803822893
0.48924686381852955
0.5108760965987401
0.5020009456757971
0.4798187035267739
0.49557816002990407
0.5226754067883437
0.5130400503041794
0.4938914279298448
0.5089693155836731
0.5334693959847582
0.535384957161533
0.5111226765620476
0.5182170204692854
0.5510411320474221
0.5442886719754104
0.5087799289684973
0.502896055051642
0.5257866375137756
0.5570370557467175
0.5524847410627027
0.5659427007742426
0.6305545690212623
0.680991694950643
0.6597562262002776
0.6674345163535309
0.68523513018791
0.6854737056371215
0.639011795593386
0.5851110166749895
0.5820185278954877
0.5845876429715854
0.557618929980255
0.525884868705585
0.5264960528198278
0.555983175287859
0.5283621745864311
0.49069555292441097
0.4903324850833853
0.49476459766643555
0.5071215368738564
0.4823396589051897
0.4876771032103752
0.5049407661302026
0.5181162067095528
0.48118085561267837
0.46882693713119883
0.48870253171587474
0.5013988210557828
0.4768000504230831
0.46873577477031114
0.5085262447374821
0.5687068593096348
0.5724391120501893
0.570786685776737
0.5933256333165258
0.6623660100863826
0.6667111798662978
0.5795439698699865
0.5469770698247939
0.5545678054565634
0.5436034985625985
0.47325883159555804
0.42642415988868415
0.439959610006876
0.4469241102701324
0.40595670410172735
0.41802373702697204
0.437732100450805
0.4271065249833292
0.3148010183956572
0.48003000240255334
1.0
1.0
1.0
1.0
0.39762769361499173
0.5825266081797305
0.6441831946131182
0.5246724793307919
0.4813696005714572
0.4988485413238233
0.47469160178646763
0.44496683872255555
0.45228311838590524
0.491027839634009
0.4916067439055585
0.47087845710221626
0.4770128340291498
0.5030884508364754
0.5048280299868895
0.48315897528429125
0.491069427622772
0.5265518017935902
0.5295004305007822
0.5151142092263528
0.5093001686770879
0.5225219699015315
0.5390261602036055
0.5251868133021337
0.5070705097527883
0.5456339537210388
0.5692240768624895
0.5522614005016386
0.5285248973119747
0.5655882380617292
0.630728461127923
0.6573572174045392
0.6649826149079263
0.7230794857579064
0.750556189928923
0.7442201655717875
0.6959682058738835
0.6728773840204012
0.6699923294168493
0.6419386776663519
0.583507598339189
0.5686578201729712
0.5912771344562978
0.5709692654291749
0.5395086077240903
0.5155766420996638
0.5327687932369084
0.5247293846465785
0.5046619240616381
0.4920698503372516
0.5088952453424695
0.5259793093747492
0.5149732632776001
0.4880832896179573
0.4884776417420166
0.5212562840945086
0.4999118444752743
0.47056492634974445
0.48518219369754123
0.5334068096551621
0.5532632697391687
0.5575054349506541
0.5771098740792797
0.6116752322281739
0.6718552306041714
0.6564257909427219
0.5664103877800709
0.5671882517180558
0.5674489293316738
0.5267718325478576
0.49121737373672547
0.46642285117233423
0.466549508541353
0.4551348796522648
0.42633999886829904
0.4585463874138435
0.4721446074390402
0.46042977144953756
0.3856737695101213
0.3902758286733654
0.8178795300538677
1.0
1.0
1.0
0.7521067951829852
0.48819882065150233
0.6296565874869245
0.6116041501573529
0.5447549063375825
0.5208176590913596
0.4867160512698665
0.5014764910283918
0.52074364200418
0.5280961780518195
0.5035418781818886
0.4894085775692322
0.5270600218373847
0.5436752713375745
0.5208057209976377
0.48536955716969504
0.5413156003648946
0.5692160720007161
0.5422452698407505
0.5267646291250478
0.5463144042693214
0.5815162975811147
0.5715502392763667
0.5370297605038594
0.5457385568152584
0.5760370584238451
0.5649394400832077
0.5455984710920757
0.5568638641838846
0.6044334033161655
0.6417821314025922
0.640881471858971
0.6651608210847362
0.7322197205727841
0.7853855552575694
0.7737692245350439
0.7336808794853447
0.7327130752305177
0.7241514307188144
0.6819034547410083
0.639020292478347
0.6105686434969707
0.612860931173006
0.5908558465387221
0.5633851834443685
0.568331084631341
0.5783732150227705
0.5653866515388548
0.5329929579419511
0.5297174984519197
0.5550830445941219
0.5287670414560746
0.515621086536683
0.5214371178458485
0.5329698837377789
0.5308613632123932
0.503951694251218
0.5018418500776345
0.5291291793218804
0.5554874755852012
0.5632875976860784
0.5869422068788446
0.6272317770439071
0.6601854285606719
0.6944623260467337
0.6594336646336743
0.6027213427441535
0.6143715127275098
0.5759324777969269
0.5406835074656213
0.4983568220901722
0.4775363143017124
0.45686724855282107
0.44011345989503425
0.4536389751266644
0.4555820387060523
0.4713108941991604
0.44804946590005823
0.373895420362786
0.5666919499413993
1.0
1.0
1.0
1.0
0.6341417052765947
0.5819515044039936
0.6266530759901217
0.5888987300136711
0.5513295959573747
0.4899598098258252
0.47233563662494465
0.4922866149517554
0.5255835453955195
0.5127174453037024
0.4773193759682213
0.49562847945447697
0.5279258890635576
0.5261256416953187
0.5030716060889977
0.5049803175913543
0.5294414632170611
0.5532273936531823
0.5406181284016631
0.5200083860016687
0.5678339341616851
0.5690281232129305
0.5587545316298371
0.551396845684786
0.5654646749074572
0.5831993834235781
0.5627971659637969
0.5460534632199664
0.5868816656904651
0.6080303626760184
0.62082550549091
0.6405745447130502
0.6922772243325027
0.7437138189887108
0.7529757983835879
0.7286513345354189
0.7318498848721144
0.7177487660431549
0.6686288512098603
0.6265681441270708
0.5984539025030553
0.5985080423269358
0.6047489412354661
0.5533949782836575
0.5283829521389833
0.5373992802432449
0.563135256590012
0.5253315979198577
0.4878311098600013
0.5216765243389314
0.5293681045538536
0.5072304549990395
0.4800403519949212
0.48775062233949856
0.500323711903253
0.48871158026148026
0.48336401345600954
0.4928177019464024
0.5202366154681323
0.5495344592197217
0.5620917979681581
0.5986690218812607
0.6351255547944152
0.6807313603262338
0.6267752144992575
0.5892846215469472
0.6063384036349714
0.5779205787988233
0.537925070561602
0.4778797035860681
0.46473271995531923
0.47060391870455415
0.45373493856143654
0.4388479699511108
0.4768188950172334
0.4788282387209283
0.4485909930374752
0.3411834032414969
0.4176631659149958
0.9697927513438351
1.0
1.0
1.0
0.7073988834561078
0.49591490986560405
0.5944934471962322
0.5908695384641349
0.5623110155623119
0.48537704764371387
0.4426225187553669
0.45809229980562743
0.5056731684054238
0.5100374339479525
0.4711788084222947
0.4704688390141946
0.5169647065122154
0.5147575233604393
0.4949075344855875
0.4978531188911667
0.5342980564965745
0.5294858568930673
0.5167317684116007
0.5136680451610931
0.541771279147884
0.5603839438199895
0.5331880487081182
0.5089909366817734
0.539703186594412
0.5734111940846652
0.5585022065781176
0.514329949159809
0.5171188008131012
0.5631537257576192
0.5840729932342731
0.5847902808837042
0.6153471312113206
0.7081384246586984
0.7449274968345775
0.7307961354712729
0.7170806234419448
0.744280508457006
0.7273740375277329
0.6568834349227863
0.6040702165371908
0.6185087113054444
0.6152852265552995
0.5692745800707203
0.5431961858767839
0.5562267027169614
0.5778584057905116
0.5387484085663828
0.5060600663236852
0.5157628915559588
0.5481768770233412
0.551281688277635
0.5230178067001869
0.5147737423431342
0.5426522787765403
0.5277659506440259
0.49262180397872546
0.4998292752460264
0.5201115584150002
0.5311366245164681
0.49499007101777553
0.5304098470058405
0.5951661598392652
0.6240157620054304
0.612346211676941
0.6793888676733305
0.6856176004939772
0.6382612636893533
0.597977326515496
0.5538728083544884
0.5329959933126288
0.5066119094528483
0.46417405261425027
0.4406651228941209
0.452261992450439
0.4914236705544811
0.47995044485101196
0.4399741477984841
0.3500022688458195
0.5032892911623139
1.0
1.0
1.0
1.0
0.4707693797424202
0.59441115809747
0.6921434432650267
0.6448392949376789
0.569821188904628
0.5449568062164244
0.5118967218782136
0.5354535835105658
0.5674396697815391
0.5421969347218428
0.5194957922715162
0.5497992740518972
0.582971256724826
0.5825381968184379
0.5680065671078688
0.5816003084531086
0.6286324215363066
0.6002810891633162
0.5790267251696316
0.5821522139418538
0.6320977214386592
0.6239521604270071
0.5936966673877248
0.593814446009818
0.6211145490977718
0.6313356853272177
0.5962503132496855
0.5774407504366598
0.6095283249765419
0.6642668278622998
0.6480919719888159
0.6865100558433387
0.7777888365162977
0.8443830077203508
0.8304876328507426
0.7939153109967355
0.8114151067949262
0.8047241696982539
0.7437077454569255
0.7094787596756187
0.7032117456512434
0.6949335668569002
0.6774410160364164
0.64544668166782
0.6326062236135236
0.6437367351505896
0.6456682431836471
0.5909170736145775
0.6043596344856341
0.6200802727478789
0.6191659988744214
0.5818108500030981
0.5642517891852813
0.5898127850210952
0.5996276823601082
0.5722149513931426
0.5501429826717751
0.5768377438156203
0.5881580612065053
0.5928899734238541
0.6063079458234275
0.6673657594205513
0.710027943401957
0.7100622136540251
0.7266395522496
0.7291648789723495
0.6832451831173566
0.6474536864484381
0.5924091947735033
0.5836376425502644
0.5657918167867221
0.5162308713754993
0.46359713361340527
0.4643830072148746
0.5175696355956703
0.5241965753563143
0.47622576525626775
0.48475068215172695
0.40487876545196383
0.48694531890609943
1.0
1.0
1.0
1.0
0.5183187924071309
0.5766143721952723
0.7903853573130994
0.6947881483845664
0.5680598529736172
0.5300301174241306
0.5387369369140472
0.5591352033724114
0.5311070057581959
0.4914489396120378
0.4983442321460422
0.5492092135011385
0.5499406781134748
0.5354404383666418
0.5467764668326461
0.58592187129879
0.5960800881767897
0.5740471985832033
0.5766429582843822
0.6077302167114598
0.6359399135892911
0.6022578757676775
0.5808153899085223
0.6183250064963237
0.6403814380425172
0.6163977303051379
0.5764710478286366
0.5981150518128636
0.640315208091047
0.6350044782626079
0.6147342222688783
0.6618858707320414
0.7384105169936458
0.7749984060224053
0.7745685119053729
0.7914173608932689
0.8234231821199106
0.8049405413181265
0.7443846368649776
0.7063732120073392
0.706234671148711
0.6792140054680503
0.6154397791666614
0.5833710620607968
0.6168801423783783
0.6123617494025929
0.5847058697994113
0.5540594959400962
0.5883707091283698
0.5973810557102193
0.5604409402587126
0.5511318623718979
0.5663933879058602
0.5736804734678785
0.5512442252890988
0.5210521280149992
0.5185212330296778
0.5646349702959712
0.543677235436675
0.5080442340542958
0.5302110224387232
0.6110148534059479
0.6438156260613468
0.6451143932283274
0.6361613174097787
0.7165116456837431
0.7559694983765096
0.6549941159293924
0.5934886834894406
0.6129684154087455
0.6134843034653381
0.563361352051825
0.4763157419746683
0.47452544547168946
0.49721339124020175
0.4877111031646786
0.4479706084955308
0.4695621371374522
0.5100432157080906
0.45904522426785643
0.3430375034314149
0.6013727102353755
1.0
1.0
1.0
1.0
0.5843175563914323
0.5816901667610204
0.7017072328865693
0.6323169682747471
0.5658761273844357
0.5338417600229919
0.5186414100084663
0.49708512579404057
0.5179982354012405
0.5404433257078551
0.5073767272277487
0.4961030243944114
0.5253809831648674
0.5508155967738542
0.5321236104747775
0.5101006195062945
0.5343568717694767
0.5593078128379844
0.5515150651045265
0.5327656234684258
0.542749220333554
0.5843879375026633
0.5728952316581907
0.5398279919549751
0.5460096095841445
0.5866512901275807
0.5872298487587061
0.5436144842845073
0.556711754339202
0.6016565625367584
0.6291187336647133
0.6285040168117948
0.6494380933332149
0.726909666010431
0.7691500027794798
0.7604864876473586
0.7477736327986417
0.7603883513245
0.7444292722256877
0.7020483627404855
0.6361442074373168
0.6287527308137438
0.6469321030455412
0.6082913940037346
0.5596633087620941
0.5598911254738834
0.5863133937712639
0.5645163560162163
0.5293882878197232
0.5150326158742244
0.5461896353379716
0.5479227404179527
0.514089301617859
0.49713852157384003
0.5229067608249905
0.5244080422030252
0.5004366719305166
0.4774705225273429
0.5069750509610103
0.5597656684441993
0.5802541400630569
0.5815440982772166
0.606498269962739
0.6976099563184377
0.7040853260686886
0.5960630835738199
0.5674433772792782
0.5871174561694963
0.5645115433644936
0.4905481553879284
0.42970502537521915
0.439588926960628
0.4619077804003936
0.428548071799708
0.4385719460312164
0.47018856339644943
0.465444832441829
0.3345088120872024
0.4569923965253112
1.0
1.0
1.0
1.0
0.4477000675676962
0.5760464322967921
0.6919580061931214
0.5869739971912784
0.5182693876270146
0.5086214080452739
0.5143657546392023
0.4697567852573051
0.482386751979356
0.5173926532773496
0.5005511527745912
0.4850052954309418
0.5040389116247506
0.5314293545375424
0.5143673345001827
0.4853337953034381
0.4994280734945241
0.5352908096950947
0.5507456928673828
0.5101382369466761
0.508880356575945
0.5483058553928428
0.5601647331798407
0.5203064055071402
0.5050765461063658
0.5428807085337587
0.5592024598290057
0.5479828156923624
0.5213533025428844
0.5540990508630614
0.6013918473363791
0.6085108685558762
0.6292363687315222
0.6850165087486186
0.7616967574917407
0.7714445482690577
0.7259197427642752
0.7326883136352335
0.7332699779465267
0.68729192210686
0.6189757544199384
0.5926857591382846
0.6266550561238529
0.5965366330958175
0.5561014944641661
0.5400597018954925
0.5585077812932987
0.5517129320975515
0.5195847958232213
0.4975239245048356
0.518741690163417
0.5133998764351735
0.5017793865078687
0.4604115297017716
0.48197423956111535
0.5008868863059864
0.4862123107529867
0.4491511163726044
0.47931271008522114
0.5223177926088478
0.5593563872557382
0.5559085643930888
0.5820870773375744
0.6437055424037152
0.7088728333049685
0.6229812547735821
0.5629647886153559
0.5705630215331856
0.5624886726690296
0.5122679266883237
0.45058649243331833
0.41279019843206566
0.45292407137710355
0.42180679794392806
0.4070092953098089
0.4284215076173206
0.4576057285917858
0.31232550412770443
0.4196359902458006
1.0
1.0
1.0
1.0
0.37931881890628094
0.5981034141730377
0.6848598877656513
0.5598320355244433
0.48720798929331305
0.5033671942555229
0.50919658478386
0.44909027627656606
0.4550407449895023
0.49633549450434494
0.5012161735955281
0.4723606848244448
0.4644688552684495
0.5016552409347766
0.5156820756404051
0.49505730125325387
0.477422898709006
0.5187499470996866
0.5312574791517568
0.5044748905586662
0.4780867114037545
0.48494486383942526
0.5229031926436964
0.5321953822247879
0.5003891251791788
0.5143466396367729
0.5637016832689578
0.56182595875604
0.5300607210504771
0.5548163829396107
0.6345332826048391
0.6940138721304318
0.7002113535981757
0.7194413488554093
0.7697231488650369
0.7793520428040239
0.7055095461746642
0.6550843505148932
0.6531284404865809
0.6443093067822608
0.5678135371975902
0.5211263450539855
0.5433611238694299
0.570887765960647
0.5181149230487121
0.47849174159095087
0.5060045013300074
0.5370547320317431
0.49386886412306097
0.4523926503935406
0.4584815393566456
0.48293871598008115
0.463228556059731
0.4327032455337093
0.4393049854211619
0.4673394858010947
0.4507306049885577
0.4392313598018779
0.48557221656696914
0.5695420874144667
0.5980033324249161
0.5666749548448673
0.6456337620183344
0.6667656180861655
0.5825677668719458
0.5251014948130953
0.5024565594533146
0.5176314859703677
0.4913712847560686
0.4137495030864119
0.35522026903082476
0.39558693685511986
0.4345371628135273
0.40026231707326465
0.3594714300868961
0.3675819045831291
0.29767891373780253
0.49182258192960526
1.0
1.0
1.0
1.0
0.45640346599792875
0.5033722209671767
0.6524976134398297
0.5828501716874569
0.4762825439172678
0.42372059974080667
0.44810825758511613
0.46433688700223213
0.44925165564052216
0.4253639265716787
0.4505491568750856
0.46567209456525055
0.4655476505226256
0.4309667343693372
0.46005889141137324
0.49624684938415814
0.49662144229657895
0.44563569128372116
0.48574068279630433
0.5213569183085831
0.5073986329158849
0.49692368106968443
0.5142509199698362
0.5491202009494663
0.5504350382739421
0.5145100611381195
0.4938942248895037
0.5362024339132084
0.5629950713036702
0.5480673855801158
0.569484363501119
0.6390834667600652
0.6912578256023834
0.6852072500731723
0.6908440051965267
0.745030897087986
0.7330762851476426
0.6771489018571496
0.6028224197927783
0.6053384614043231
0.5924003920809893
0.54771363393938
0.4711174254238338
0.4675395571958
0.5139158940993057
0.5183334342635713
0.4545410120976414
0.4403586870798321
0.4588435254378127
0.4458681051243733
0.3978444782568146
0.3932031575612661
0.42459122413362493
0.4148680958448382
0.3945604022224488
0.3813068255750299
0.3870801530168927
0.4153881971062051
0.3870952380340885
0.3629918725670678
0.4390863466442599
0.510078904840092
0.4999067274562514
0.48950135256709376
0.5937044444536618
0.6199104711345405
0.5211509929490814
0.45324067930415335
0.4343929323343591
0.42641233447860555
0.4033310046561279
0.30838146658366955
0.27565466083208207
0.3119167917723221
0.3328353086271478
0.2800202092216159
0.27748576615440035
0.3168266497061974
0.23880443514034141
0.17008001643537307
0.7025670801711986
1.0
1.0
1.0
0.8276258865517786
0.3359676783518611
0.5399328537091072
0.5173799477376847
0.41955866858102847
0.35546104340211954
0.36387175507304637
0.34657930364737366
0.30596222901389225
0.31280496600755187
0.3626971880666318
0.3664277586004849
0.3289274424806955
0.32399072825054825
0.37820348076529087
0.3976156696532059
0.3625795634956198
0.35389737739781185
0.3731006213498486
0.3854161413989132
0.37280440345536886
0.376461533395754
0.4035879926955893
0.42834010958666147
0.39160090269693776
0.3729957737160956
0.41429906024102864
0.4348496606996199
0.42315899543463936
0.4102900402140259
0.43784789374396915
0.4771728696978787
0.4968024983136795
0.5107084908774244
0.5626884695789216
0.625739465159963
0.6460747389850577
0.5921512538139655
0.5509492614659798
0.5621959607829505
0.5396114429792196
0.4741225507778622
0.4338111850500779
0.4410796770963496
0.4373049214258911
0.4232110090908344
0.40420317235059133
0.4134364820300155
0.39411878601369194
0.3728873926714358
0.35615863373809553
0.3680414826628485
0.3941049995083283
0.37012808176822143
0.34727100521319576
0.3528967828556787
0.3824093315182756
0.3818894178226776
0.33650955511126857
0.3517999010736452
0.4440600283308262
0.4680177538549211
0.445051226879379
0.4975807140255406
0.5786637100320393
0.5286147863036568
0.4515475922759996
0.43390543879124666
0.44483105290754177
0.41012239475047546
0.29951475820889245
0.2790239083052273
0.3167689938329653
0.33118940853486956
0.2950765822500193
0.2756453264979716
0.28995155946583984
0.19296432236164388
0.2694345631088128
0.9818819721482331
1.0
1.0
1.0
0.3071489119135886
0.4229903539177487
0.5652272134674929
0.4902300183101114
0.3649846329086979
0.3514706595351777
0.38500838271268356
0.3627650730490209
0.32611165334873965
0.3087316357486217
0.3672861920620393
0.3954745351750284
0.3754404916842248
0.3676408919987706
0.40391648259312085
0.4314873153707367
0.4170766118805015
0.4066401130322276
0.4250539678964188
0.4505886516386994
0.4257386219105442
0.4173170691487898
0.4216318369386968
0.4664224128420763
0.44405810861108463
0.401835374958546
0.4187619323342199
0.447641788823109
0.4813992944141874
0.4506041676956783
0.46274132715740873
0.5401952330732829
0.5888558152504972
0.5888479693269459
0.605786929398461
0.6389792766664479
0.6426737595743431
0.5961452642475447
0.5502130929867987
0.5416062178838289
0.5223179074400677
0.48161465154638305
0.47114907133603856
0.48067158848958125
0.4968213998349527
0.4771146459271883
0.4450637501177093
0.45482857132500687
0.47589262002133115
0.4604697653463935
0.4174552713972723
0.4216853089620959
0.4466710738126807
0.4370114055815256
0.39488571110238
0.3869254834878662
0.41145954934046713
0.41856844021208445
0.39173157122089414
0.42480051314622835
0.48928007218900255
0.5290760105753751
0.5167842397248974
0.5659254939683791
0.6026512305648272
0.5268250654763326
0.479465919549494
0.44834842447493817
0.45169909163029975
0.43128303803580526
0.35621417731142296
0.29742986736301313
0.3247201261826701
0.36953319148121194
0.3631537772049885
0.33214535769147435
0.3328890872888119
0.28919802660282207
0.35076757366178485
0.9136960909262843
1.0
1.0
1.0
0.39505243618159247
0.4895626814293479
0.6526647101170808
0.5342379013067303
0.3959215885510965
0.3999836744530249
0.4137705855437238
0.4308172513780969
0.4110709044934355
0.3815632212531919
0.4127063804872978
0.44284669902285234
0.42844832848583814
0.3930461705397548
0.4204338510858632
0.4471897525977878
0.45232899719208913
0.4372543858823003
0.44070385796355216
0.4846118719656377
0.4812062483472217
0.44606122386693914
0.44867919710446147
0.4884305663109722
0.4941902633526668
0.4390679934961318
0.43950491257223645
0.4841164572951677
0.5116755776246158
0.5088329437030826
0.5281740517236926
0.6061244214816119
0.6736862932097062
0.6699150231629252
0.6417307578154791
0.6424796301335369
0.6309129220486802
0.574502525533595
0.5394016450869771
0.5063566442124199
0.5212051955544491
0.521850989494044
0.47062150253096063
0.4605035367305222
0.48632372779176525
0.4806499443302016
0.4467129955580109
0.43530788816668853
0.4810101802650582
0.47758594823401435
0.42606943733890745
0.4155854897423251
0.4460528695798643
0.45408238044023375
0.4291140987021551
0.4003165089071589
0.4453411593482475
0.5108970887443105
0.5364252340303517
0.5265676068717227
0.5640523001538589
0.6330117323771718
0.6387258384758585
0.5175661041441378
0.4836367498516867
0.4965833151007121
0.4812626957771015
0.4146942907287663
0.36202646826864393
0.3709897212583003
0.3846096979594845
0.3579587823820294
0.3581057046506828
0.3931061217391898
0.40459628885594273
0.26450557187920937
0.38799784870638404
1.0
1.0
1.0
1.0
0.4305952837952409
0.5321973446785024
0.6749549701831208
0.5360035749791369
0.44430730060060564
0.4450749441217578
0.4118877598006228
0.3959912091242547
0.40867239998995164
0.44460184410649567
0.4390285823307584
0.4160036489993736
0.4231268714697457
0.47506353578971916
0.47007618063596446
0.4425112939520203
0.44858145440472186
0.4785447456796185
0.49282421316255676
0.4821351838999498
0.4639318232623425
0.4903097778675732
0.5065992212195831
0.47025772145315636
0.4449869528050588
0.4708172112596095
0.5067792107195709
0.4883689559666897
0.48263193733086807
0.5001240143770465
0.5653771133538188
0.597274136693374
0.6226037591182427
0.6599862326166994
0.7063379725163326
0.7002227838569348
0.6530502531604712
0.6142684719678023
0.622445806064787
0.5914781327358613
0.5271525276074355
0.5030261444781603
0.5210316713964074
0.5295218160952163
0.4793728091132988
0.4443588542744473
0.4683902779717225
0.4903669163255694
0.45620484969939235
0.4274411205650108
0.4473221871489145
0.4616313007395024
0.4421308984368794
0.4106144607565093
0.41964573050979703
0.45858695082620804
0.44600892852018276
0.4092987578740209
0.446044803697741
0.5068366729903726
0.5338581402993456
0.519585930834025
0.5638639740814074
0.6559613683870922
0.6065645427816124
0.511367746663994
0.47819045343655003
0.48673208191630957
0.4810326726718618
0.39351762371416876
0.32104220363831565
0.3548780296824926
0.381649977844918
0.3669137960064427
0.3416735896142442
0.3597436044402437
0.36076532045529197
0.2633470760294804
0.4762389207234121
1.0
1.0
1.0
1.0
0.3282694087802893
0.5671622286420432
0.6310952047790804
0.4745099802668781
0.40694876654731393
0.4180591254653546
0.40927423681290537
0.3740530708414468
0.38037051618588186
0.40230202978586815
0.4307784561187861
0.4069596028072919
0.4008227627515709
0.4274847970922336
0.4569890092920731
0.4271431801099393
0.42028685718821535
0.4444960007433386
0.4697805477589193
0.4610428204845727
0.4343591459049227
0.4514522642312497
0.47724712624527255
0.46151846139707375
0.4186473987145802
0.4464442854321386
0.4810801894821234
0.4914694279377666
0.4592572103606927
0.471094005526412
0.5394473630266623
0.5738794099149402
0.5939805488581612
0.6430785240592877
0.6884891952523177
0.717409206302654
0.6808673328900909
0.6465710676084889
0.6410636532655272
0.6150315846703582
0.5584074670183847
0.4966104791181184
0.4924640992194445
0.49566073124294147
0.4928474148503447
0.4458799546894642
0.4476246318369664
0.4722127817156011
0.4543181468326898
0.4200282307191598
0.4125184205916863
0.44495752686931417
0.431350341842236
0.40186342118200047
0.4053419341978956
0.42308305769608195
0.42008394720959796
0.4054182170939315
0.4301458133722563
0.49305090071657764
0.5551077151668258
0.5334180045368573
0.5776150240088341
0.6132412048282089
0.5391181350703748
0.47870651622103544
0.44801073305889216
0.45404879747437726
0.4237167671908339
0.3486399348836491
0.3061775825013725
0.3219405977509841
0.3628408036948067
0.36666407484927455
0.32170297805628956
0.2801961937191208
0.3027493532693086
0.7385162310117306
1.0
1.0
1.0
0.5732003944228045
0.3793004317401768
0.5828108661303288
0.5303370109659695
0.4662279818593304
0.40748467541237315
0.37409223880795583
0.38408699712158195
0.40863498999088427
0.40311237354320983
0.39333518497612274
0.42171972177294875
0.44816836695697215
0.45069289639529286
0.4234808757086472
0.44369420852178176
0.4720000368262183
0.46580269561454246
0.44314015471632
0.4590517593524333
0.4902296944384893
0.4997942684444111
0.45514234424068717
0.4381094400898394
0.47726509693406766
0.48518508558299345
0.47844690617179964
0.4762400517242408
0.5145770484670107
0.5409520077408134
0.5238000580479765
0.5373041823799886
0.6031682949186599
0.6499033262839741
0.6651802146990404
0.6528998357730919
0.6769919379703487
0.69840631918058
0.669675320259033
0.6078066267223858
0.5871756264053777
0.5991516308137219
0.5664860915100584
0.5125927111470865
0.4908245193942899
0.5084007720813136
0.5205944012964862
0.464946332138536
0.44282496487592204
0.4803962077110883
0.4786013299553325
0.4592566590853444
0.44029449018741085
0.4495923228574708
0.4463099483208797
0.4319432182822561
0.4234417031749548
0.426677441191886
0.44307803425896364
0.4480193019281401
0.43680824145459934
0.4906031811314997
0.550396977495063
0.5660530343563412
0.5701320535274755
0.6245629985876698
0.6329717638924478
0.5620645067142865
0.5195014853094341
0.4976582388156702
0.5130654092872371
0.4759206395158645
0.396489043341274
0.36051051662464567
0.41929272610677926
0.42683017170818643
0.391866307675167
0.3796589964036965
0.3948692937815351
0.29642074445477323
0.3703169769883913
1.0
1.0
1.0
1.0
0.47155963456006333
0.5010067933523662
0.6592897960755064
0.5673440717545049
0.45515431806642404
0.4310835596964705
0.4491293953761108
0.44319379424164557
0.40312342389382455
0.4058381245252175
0.45670440479920194
0.4550754247245937
0.4214203458324617
0.43512846136294525
0.46670055995698617
0.4763140980193187
0.4774891604950411
0.46607049066346884
0.5206387989511007
0.5267285268763429
0.5003678668359322
0.47849920443789296
0.49895504877245067
0.5259842335373748
0.521619836566048
0.5023525040772794
0.5096136914301549
0.544389377957313
0.5584625096016727
0.5445370507205813
0.5702701869523856
0.6403263105033052
0.6735265802471944
0.6641270787137341
0.6987450393745818
0.7245850776864996
0.7084214453660926
0.6389473108075971
0.5959602739953792
0.6164216171300683
0.6022697666140949
0.5759997695054005
0.5248581461884458
0.5318988428014039
0.5458249813205474
0.504178235380786
0.47460983482178587
0.4893737867544824
0.510436448059192
0.5058509997164048
0.46083566806684984
0.4647776678396687
0.47861471395641075
0.46407104467663096
0.43549702691965475
0.4486281014937509
0.4655682427094037
0.4381061293293279
0.43356449562771704
0.4824438260795951
0.5358908800118695
0.5725535937081669
0.5327452773809764
0.5843432229240851
0.6616678400643928
0.5986338038364295
0.5330185870341102
0.4917664860337202
0.5144931260687382
0.5119369678014503
0.41709557737775266
0.33196236313201294
0.3551196166163333
0.41911871568002057
0.40215597121943814
0.3482916510719485
0.3611172045773583
0.37898099538969027
0.24212595621955102
0.37353056709447285
1.0
1.0
1.0
1.0
0.5118313771062062
0.4745978903472988
0.6090461000138128
0.5382849858338205
0.48071045898682596
0.4525531441014615
0.4361391589557663
0.3818932586361875
0.357777405903225
0.4214934862970276
0.4737053131120116
0.44039479231834966
0.39984243033651345
0.43445572400240484
0.4901493738665816
0.4628578974551153
0.4379659537927848
0.4665705327310515
0.4980451231400587
0.48079335557698827
0.4450819882937962
0.45558585514026706
0.4963514029327297
0.49733775559787696
0.47155431460779706
0.4698099901207938
0.4866826590384442
0.4827771682465789
0.48567973564961786
0.47707526274410295
0.5424204473533469
0.5970719499019632
0.5940592341174057
0.6387872866242079
0.6702920844492498
0.6886270045459342
0.6532395957058217
0.596149427203522
0.5861334883333804
0.5940656754098231
0.5554785612518034
0.5086016754798087
0.508052061835458
0.5323376315128436
0.5050061157224339
0.4683179261971032
0.4852301761230923
0.5126325195065307
0.5101827327756786
0.46811160311109423
0.4778222841353804
0.4818997769993346
0.488275406116253
0.44679009984162504
0.41691296120027915
0.44743510066312525
0.4579910858738619
0.45812470529677196
0.48609916112673435
0.5625809211725528
0.5833183521810514
0.5780127217560792
0.622797448196307
0.6307780624230281
0.5806291612937173
0.5455246335337159
0.49129018263173574
0.4890038116935438
0.4561808125779274
0.4036158506492805
0.3627763547747203
0.3817699297348005
0.4080128768742072
0.41564270171753276
0.3848073704440583
0.33429932246970767
0.31589831598340634
0.7371409803177349
1.0
1.0
1.0
0.697450078310436
0.4139225216636969
0.6198683205031705
0.6231978328437492
0.5521964038002677
0.48479354782590345
0.44453313207304185
0.45212040981357016
0.46948099665682375
0.4613450038343191
0.4493574762839022
0.48277959900349865
0.4973466149532334
0.4970296588519192
0.47191530683598826
0.49847649309774333
0.5422936525884514
0.5372669326704581
0.5046424989932856
0.5022268405272791
0.5442215063700117
0.5431670468367368
0.4968205652051568
0.5032572848220885
0.5353323487706266
0.545482839428339
0.5190517969961549
0.5054124648135919
0.5347637855012464
0.5606515549701359
0.5398219443352644
0.5444149752379134
0.597973709988624
0.6841326808305543
0.6987379245593679
0.6973284582588557
0.7201039059368577
0.7242507410090384
0.6871631040638405
0.6315963360306199
0.6089593037666405
0.6073604229137322
0.6034296214062733
0.5472850547450162
0.53178016156416
0.545092499295236
0.5475880555157402
0.5104501781762034
0.49290452976906723
0.5113298547383291
0.5309154230491516
0.48282745136419364
0.4503878678326395
0.48226241030233047
0.49720658271557605
0.4798655239590418
0.44559801182141784
0.4697097044521222
0.5052533283694413
0.5361516842783469
0.5477418912719993
0.5735132520612368
0.6302423312375862
0.6809418927191053
0.625858602079784
0.5468456872631704
0.5552014156981149
0.536131476021495
0.49294998126068545
0.42097714187771873
0.389094229856506
0.41537921959426594
0.39305326705986776
0.38516895622306224
0.4242443440051479
0.4481760782166201
0.3705676551728353
0.276341474590038
0.68830306011881
1.0
1.0
1.0
0.7199073443408665
0.43790607124283554
0.689139434460816
0.6073761740455618
0.48677149659975993
0.4704493826893515
0.48499819473540173
0.4293750311618057
0.42243326789771174
0.45172789595705504
0.4619830413791261
0.4460998219731023
0.4488923127292884
0.48742261233962186
0.5046162800273714
0.473852175458671
0.4714895572406713
0.5063110991993113
0.5218522053821986
0.4941975295624063
0.4901096562814691
0.5196172456082512
0.5340723709033619
0.52258554631797
0.5074932446413053
0.5155401129991354
0.5378403116544146
0.5231067296183888
0.5004104189200689
0.5254613326328752
0.5609809487573769
0.5951452587914804
0.5914821390994092
0.6260234911884812
0.6871835240400423
0.7132479651589827
0.6656870157905523
0.6376664896897415
0.6468966734506165
0.6291710460325113
0.5544946813209678
0.5318754734872466
0.5316556060256818
0.5328186606643812
0.491246463634036
0.4771658726293063
0.48193647238799153
0.49754204625104814
0.48775894732130565
0.4688123492963986
0.4646693247592804
0.47307014178950857
0.4833955055558886
0.42651737235381904
0.434746658076864
0.45768458291666186
0.4553377867422035
0.4239687937470036
0.4139435786470367
0.49002971709517873
0.5309583333078738
0.5387440294045971
0.5343477069552701
0.595690681629583
0.6901601575122569
0.595484713393296
0.4934764883736519
0.5105063618059515
0.5112087156726906
0.45558662307520714
0.3803717647984071
0.34611978914366365
0.366956948047745
0.3577142653648884
0.33720548780710347
0.360982710872698
0.3991723987331833
0.3529093788701753
0.17931169932154695
0.45376357288347025
1.0
1.0
1.0
1.0
0.3262779362550107
0.6096183032323232
0.6342492249591404
0.4909838230788961
0.458116678295601
0.4606442028937791
0.41504727328802754
0.38916934640830203
0.4135275872535594
0.4382920529529281
0.4268829373067035
0.41032606247732506
0.44886490641495225
0.4742878224357396
0.45600416607097827
0.4360185646615876
0.46974714094087683
0.4916790451157967
0.48716192314356144
0.453094845816319
0.4701759084100928
0.5123398326708876
0.5042237323831322
0.45447642507859365
0.4870780141748622
0.5117987759070922
0.5188273008117902
0.49028477672244286
0.4895188686405609
0.5290790918956167
0.5686755425637585
0.565513213648974
0.5984501654877405
0.647232485494837
0.7206158551728757
0.710798771530994
0.673308663104635
0.6735846741227988
0.6876269075364084
0.6262608211803385
0.5642176313786968
0.5592290954369646
0.5505860623244534
0.5291244163301303
0.477028953876493
0.4724373068485172
0.5051763774796286
0.49051981533841926
0.4426340585787793
0.45071700763922823
0.48239145967309616
0.4735146867427075
0.4306471442158129
0.42474230556275006
0.4606316308523753
0.47119837155624456
0.4335746552597584
0.4094929608332477
0.4395487601536595
0.43987287962709953
0.43739498503129914
0.4516859780371032
0.5106253647291172
0.5722457722212279
0.6012882740580406
0.6411164600243943
0.6412884369853891
0.5612736279818338
0.5252577197942847
0.47283878130807155
0.463299608110347
0.44285484194187985
0.3712671720701327
0.3251282398295614
0.3288757484889414
0.3678659970668222
0.3956425196358597
0.33796593138738024
0.35114229451435774
0.2940330663976162
0.2802839088142733
0.7612396562733361
1.0
1.0
1.0
0.6279957979302914
0.3306829907278977
0.6269186474585713
0.5853228349193453
0.4555848355437145
0.39509447805738035
0.4143595198819943
0.4247351816328286
0.3993545378520178
0.3673343866040233
0.3840347780176976
0.4270672198773764
0.4270247032070104
0.41127755629969914
0.40968697137571325
0.45760078893051215
0.46484783197150376
0.4406159820759445
0.41621995670313927
0.45564818116013495
0.48214564700506707
0.45791839530346357
0.4418533590860729
0.4752609909941256
0.4988286668439527
0.47564130861600695
0.4557233535166551
0.46881373333011717
0.5001181842200312
0.4914502634745599
0.46723677076634873
0.5092876678801703
0.5713383317382883
0.6127944761102617
0.6370580576801929
0.6717610470521548
0.7256803695346875
0.7036060122595637
0.6486835421892241
0.6253777733647965
0.6111126737736773
0.6023195645714596
0.5319492742285765
0.501455248848057
0.5202830350035388
0.509944220521986
0.456974382806432
0.4376547453239253
0.44823698447868565
0.46730289003940684
0.4328329965522529
0.4124082317689071
0.433134677537734
0.4498566771463948
0.4175159085675439
0.38088328668012206
0.3921937490471297
0.4282631323378806
0.43116087477824694
0.4098626416859908
0.4458806934496966
0.5263904912361875
0.5447782463334704
0.5269291344687312
0.5818056335161609
0.6593469427171247
0.5775036872307886
0.49662824736957356
0.4780968887575562
0.49372501712003036
0.4471257489427757
0.3517848917300572
0.3103008399509852
0.3517883499747855
0.37095274100737335
0.3575315484700578
0.3288483141099828
0.32365905710971676
0.23260095541444334
0.41090662071649414
1.0
1.0
1.0
1.0
0.2948447449212087
0.536647136793725
0.6264024052303894
0.5197171001628929
0.43576337028584644
0.4078815656912278
0.41521035416405755
0.42705854047318476
0.3782750525953078
0.36435282483029513
0.41232816528318306
0.4559331229358373
0.42177479179314403
0.4051836387629158
0.4512994545250181
0.49308291348309324
0.46385436133418045
0.43760307335705484
0.4633752990009417
0.5016521030905867
0.48297940857570854
0.4561402431825695
0.45147749796196707
0.4870896643393466
0.4812206198645851
0.46282466939868677
0.4637389624779706
0.5148923050556489
0.5436254086171403
0.5146203826516119
0.5305722279569729
0.6056155653525042
0.6628821478398347
0.6712793333348237
0.6922757451196114
0.6913249975182029
0.6955508392860384
0.6200933730797227
0.5638457205485112
0.5404405263795551
0.5614184961729767
0.5285673979860273
0.477557448245013
0.4778392416821709
0.4996318970591217
0.46153883232762294
0.42042546543228954
0.4148539299695764
0.45382705873501356
0.4365747656415482
0.40282582583397913
0.4098306147704541
0.4322993383577719
0.4427176037289418
0.39971041654630984
0.37878075583808524
0.3829512178084089
0.4046028683184389
0.4167643448193634
0.4183513697046715
0.4680458064277073
0.5202115944988355
0.5429376026554755
0.5891112521198882
0.5626659937396103
0.5141427169469196
0.48514925894785554
0.4425948230869815
0.4293588052153464
0.38964003390795204
0.3412531202787221
0.3220705393032592
0.3366588736268786
0.3503546566708394
0.32952594631763976
0.30724885957220094
0.23887618482566175
0.2504464478142249
0.7798868053603705
1.0
1.0
1.0
0.6101913608483371
0.3963062456525561
0.5677765277012881
0.5560258922815111
0.46603118731733384
0.3884486210142072
0.382435684188965
0.4037247912481211
0.428728328385127
0.39236895707846153
0.3758678825897361
0.4067447541591127
0.44917738716219785
0.45425165509123955
0.4084413983524531
0.40499903939845866
0.457589522710542
0.468897764268214
0.4318144697035475
0.4122768132258495
0.45884293536196863
0.4655968590260223
0.4457332052338293
0.4255462612325166
0.4666532989278986
0.5029818457143611
0.4710919438711955
0.4557587022483978
0.4915426712376389
0.5565783602356469
0.5892251329385775
0.5960210340549893
0.6269917385813581
0.6841798325105166
0.6624425481992728
0.6103782523238899
0.5900750733445238
0.5821884463865841
0.5528904870800464
0.4852584371026425
0.47181884257966794
0.47591016782975915
0.4581555820328089
0.441057505016078
0.3985973315237363
0.42188416052968136
0.4203448489298962
0.3874471052407515
0.3704547211768194
0.3903545288300648
0.3993517248144317
0.3764143257104696
0.35483435289078
0.3871106727544036
0.41077357578541174
0.38556218963742195
0.3458206166332462
0.39606215357498425
0.457755644772909
0.48223352087038174
0.4647226548568332
0.49792814072935104
0.5913735902646435
0.5767172259337056
0.4706195011827674
0.4593084975156884
0.4844129673272041
0.46635482846129117
0.37002260220908
0.28785634781209507
0.3056411883056072
0.34692009150058445
0.2932961486032802
0.2863983027849067
0.3537881121518676
0.3244347048053648
0.1891214237423894
0.3937576623842613
1.0
1.0
1.0
1.0
0.3238302830345002
0.5331017629480819
0.5640296524468865
0.44820731805396113
0.4105783909315262
0.425875694345052
0.4268628675996046
0.37510137430364654
0.36931953513399585
0.43551070766322375
0.4402336114348736
0.3891248745053362
0.4004245631296355
0.4232020241563184
0.4623463697344253
0.4413519949825627
0.4475800697723165
0.48172011351395677
0.4853432671253408
0.465559212826137
0.46524839164807447
0.47839903759808733
0.49657328621752617
0.4762394064511696
0.466309227756029
0.4777678668743374
0.5211197384648772
0.49386034744801915
0.4696044088361539
0.5348248325487464
0.6053118470511542
0.6365431052647665
0.6525480880312129
0.6416556006062463
0.6652926434748028
0.6542723061200035
0.590607456402268
0.5479603786576897
0.571342103135658
0.5608469336107826
0.5158153636146732
0.4837593765354763
0.5169058653443559
0.5253115090936493
0.488701854402096
0.46009194990819635
0.4835441334520117
0.4954952328968899
0.47124611992839754
0.43242287956477937
0.45466090093371625
0.45459126184202586
0.4457568709943393
0.4080409542615306
0.42158264428276293
0.4658040594292491
0.4717468258070796
0.4618511007941531
0.5058066878742719
0.5607294015534189
0.5727930299001152
0.6094501669649433
0.6255828127565308
0.5564062662516214
0.5307684038298455
0.4979882762385944
0.4564310618930965
0.4384811853611678
0.4038833330907855
0.3432185671803924
0.3352721420797512
0.3571017493061742
0.403261391989453
0.3843662062857175
0.34603016838143097
0.22044639847219488
0.3515754932228898
0.9671982916881632
1.0
1.0
1.0
0.465429521652377
0.4203786801935701
0.5941776027216589
0.5674665602644243
0.4934606682626669
0.42834565536861036
0.4215438358572111
0.4390317895790482
0.4592768620279405
0.40221262781592204
0.4071777602999081
0.4443956436389359
0.4681223463231948
0.43992749999090386
0.42848794036906623
0.47082497496484327
0.5122246629622836
0.5040618063812308
0.4812196221572324
0.4864810745825613
0.5237726923982898
0.5116916090174324
0.49414616588668175
0.4970578521539136
0.5396325041645306
0.5267185163936183
0.5091720250127956
0.5111506686026608
0.5319288422606586
0.5518751514219153
0.5304553674936365
0.5506385306327847
0.6185320639586214
0.6722023804575809
0.6858291342477915
0.6819451710632205
0.7082033638243809
0.7126713122925483
0.663342250893411
0.6133268050695118
0.6145791835860309
0.611593591618752
0.5695338670206183
0.5295897483867387
0.526932330100965
0.5483799699820547
0.5314440772362027
0.4830762325408422
0.4921995027570579
0.525130805732361
0.5179921182102334
0.4743179419758071
0.4701053095528187
0.4846402306279849
0.4840489294965587
0.45374046764554743
0.428957962326914
0.47966467954849934
0.5405173355030264
0.555846251452011
0.5558445526668248
0.5960487192454922
0.6600526303601587
0.6457844207542351
0.5335138936016175
0.5247763341185394
0.5385353079687957
0.4806897268000056
0.3772097695045461
0.34251917436216556
0.37634033606968353
0.3816987721437164
0.3513015999573983
0.35499022985855067
0.40089095661658963
0.34252661118796557
0.23037978613297447
0.6621335248984547
1.0
1.0
1.0
0.75872746031273
0.396249045369386
0.7000495117974086
0.6163950369535696
0.44977698909793606
0.4373314389778116
0.45512612833355803
0.42525666397368517
0.39978065021376225
0.4415122278597178
0.44833159209375256
0.44439588201024927
0.4220358609174285
0.44957795650410104
0.49035062834305954
0.4652750448639352
0.43906407193371644
0.45705019244465284
0.5092850657817312
0.4888886837250107
0.4789566742904337
0.4804617768700453
0.49924041509283423
0.5475056225887551
0.4863148917741033
0.4645335521313691
0.5214454417805592
0.5474248844316892
0.5058935936974754
0.48379780140436957
0.5290117814154708
0.5783638410775348
0.6044069420999552
0.6030225092553955
0.6943476244263224
0.7352680265075225
0.7292214167104392
0.6716731032333285
0.6537022390566222
0.6260167202238959
0.5904920239832865
0.5240748680396027
0.4932303398525004
0.533416171394385
0.5167390887960996
0.4592197639311532
0.45895379708429607
0.48188013868333934
0.49040430337861685
0.476160866917213
0.42594002728711383
0.46443129309993536
0.49010364764691666
0.4623443925088372
0.42908831254315044
0.4433440839525907
0.4692836079413899
0.4418002018542306
0.41935186176839123
0.44183821570883763
0.5000142958122498
0.5249026833673149
0.5218192954528825
0.554226972782921
0.6214591520208239
0.6924121321308057
0.6162430364026088
0.5088081936388436
0.5379065340669852
0.5260639178682435
0.45398016516552797
0.3808811983197026
0.37042402733216523
0.39488646037099445
0.36454147840460677
0.3663516633199527
0.4033127776219854
0.4159664543429388
0.30552709468892203
0.2737804129265694
0.8924978340014625
1.0
1.0
1.0
0.3971463122998869
0.5360004524049822
0.7068089716912838
0.5372726944053822
0.44809464218517725
0.480163935687455
0.46311790207038744
0.4141222152137396
0.41021477855252175
0.45541550988094154
0.46623341745946745
0.4228164776864302
0.43493033038670903
0.4869856306419093
0.5060062577394839
0.4788492073888725
0.46899181285854563
0.4923243241673467
0.5143406121947601
0.5053409212113646
0.48851605275065335
0.5187279284464319
0.5551880095049609
0.5283275168167318
0.5092782091727124
0.5445610780402007
0.5783915898267027
0.5611647565065223
0.5172053694324034
0.5497504217905155
0.611136419394966
0.6512540958977413
0.6612101824152583
0.7095832085645423
0.7672728493094819
0.797570316288378
0.755766618177979
0.7117272701807316
0.710055880469631
0.692102651833007
0.6292326714240729
0.5942444382999148
0.6012266040692682
0.6003653426209521
0.5651816407924437
0.5371617631027797
0.5561731012706919
0.5705366285129697
0.5200374830417288
0.4944278400254551
0.5226110208353967
0.5334140716120402
0.5225484839543157
0.487992175473219
0.4956850048809874
0.5081991908235168
0.5133530106853635
0.47748550755155517
0.459449985508662
0.5026643518188435
0.5068519099189734
0.4899849278913286
0.5272205930533195
0.6131154783596019
0.6302066012032209
0.6256601027933071
0.6753412365626805
0.7122846810696487
0.6476487135373384
0.582712645828722
0.533982587376011
0.5506227529581562
0.5270051489185491
0.42437882817791284
0.3703245132683211
0.3897748991668859
0.43389125649979565
0.43097488553202135
0.36747957756943067
0.3825631439934115
0.32726528697321616
0.3711529259935468
0.959953836823124
1.0
1.0
1.0
0.4796264825240904
0.5119725005308207
0.7104780130695467
0.5982261313876936
0.4718353606677014
0.4576671962203349
0.47897400107043825
0.48238847153546943
0.4530435908046969
0.4158448469519381
0.44197995085023506
0.4690329844540308
0.48200984361084653
0.4722498928474866
0.4868942706800814
0.515341821144592
0.523462842110093
0.48520508381437333
0.5204894739083337
0.5393137649127637
0.5464389578313441
0.5025049778734422
0.5031240519926548
0.5432277839055419
0.5467267611717972
0.5205155340943265
0.5205631209763312
0.5588142293098867
0.5842037761316805
0.5779360660461916
0.6093174083284574
0.706099472483811
0.7640537201218521
0.766120095296744
0.7525454601227652
0.7423934402008376
0.721659291098703
0.6604789225665642
0.5943063893009602
0.5639259685263804
0.5927821936393054
0.571458459555961
0.5260404018277277
0.523856759287867
0.5344029969731589
0.526840226361468
0.4750215840195008
0.46277550447337906
0.4745966240199113
0.49371791915959806
0.4583190035767659
0.4372794961422065
0.46499074378513117
0.4887599076239685
0.44676243137615385
0.4329078554574366
0.47585215968437566
0.5202660607961287
0.5424784267933724
0.5413330472970574
0.5758785499309151
0.6575744784189518
0.6945845572796465
0.5535909568608288
0.5024207921865929
0.5694649777983032
0.5393222562228308
0.43595456365304336
0.37624218408188215
0.3825378831835935
0.40356075092094057
0.3643487003467591
0.3487394066290693
0.40810270062182397
0.4047962441013995
0.24027276111169665
0.3929790000999417
1.0
1.0
1.0
1.0
0.398265319005501
0.6065131243881036
0.6567554960603197
0.5262091046171076
0.472449714419043
0.4867895348486545
0.4533396711281412
0.41378645446550716
0.4251827133240271
0.4660412580882752
0.4660695377266686
0.4234287796589202
0.41892334005152587
0.4790441174147241
0.5002037878660353
0.46173399283611277
0.4680610880531149
0.49627140334218967
0.5071479731145198
0.48336246830270324
0.48127239065780836
0.5154945777641873
0.5325267846648332
0.511836563305139
0.49734423214789025
0.5268249846843416
0.5564562365459442
0.5504011265206207
0.5390860627469489
0.5704817778551234
0.6268852970154029
0.6381105944965842
0.633228290031636
0.6957498154402957
0.7632958832877866
0.7325812377612403
0.673903117370632
0.6402301887513928
0.6366290581136276
0.6036741636986063
0.5402116674110495
0.5092162903156805
0.5384397537976048
0.5354966887876096
0.4538210463547429
0.41774533764205224
0.449927559195671
0.4839333155927316
0.44540772674214163
0.41498561348437474
0.43923396662755804
0.44025247398802625
0.4066039738864876
0.3765540033243334
0.3870616021362411
0.40261414372057447
0.406715163840062
0.3856337271002893
0.4138562807881033
0.5001537129312041
0.5290692973067224
0.49583281139176727
0.5758678142947246
0.6618322110592246
0.5804182570301261
0.49328068282712856
0.4795594510090705
0.48648798506509416
0.44096125392842805
0.3233603600662665
0.29208486022055025
0.34882472993618385
0.3481029170494363
0.3226670145116864
0.3116166525997996
0.33796046532491875
0.22500308273659617
0.22461824206879105
0.889456595793469
1.0
1.0
1.0
0.41694522286527924
0.4098663701374294
0.6139615585663469
0.5187975173988703
0.3542300249825743
0.32150600224041725
0.3630092008828368
0.40220898484300094
0.3716036819311813
0.33941410133486655
0.37834496391042005
0.41089234116219087
0.3670795398768849
0.3435411421783866
0.40300904675767313
0.43433524034786136
0.40376827700053114
0.396069735071073
0.4208546073054421
0.4754711161936888
0.43998844332238063
0.39353730265260917
0.43169068046167497
0.4529905093524837
0.4239879771122356
0.4211468049852331
0.4454136368023328
0.4737611438354339
0.4913288873841447
0.46749375369089474
0.5189181304337952
0.5902623253015259
0.6444284332206007
0.6361718465926072
0.6437449139188074
0.6501840674071879
0.6142348443932143
0.5254555900150419
0.49994534537663127
0.5018031595692545
0.5085602327458028
0.47490995268179387
0.4361092123089697
0.45320074783976316
0.4774458236830398
0.4436017462372261
0.4043947470127751
0.4115343175285126
0.42414711524483534
0.4136364086903579
0.35782318407669395
0.3457225148940923
0.4020373250375774
0.39379466941103053
0.3491424236998231
0.33939412793954793
0.38861410628497145
0.38241389885954524
0.3547338792117989
0.41128877717621704
0.5021694706067248
0.5134673244608647
0.497623471374636
0.5650766093258486
0.5789247425975648
0.5077949497385148
0.4471358583188632
0.4034568997147763
0.42371803333590574
0.3712607786476455
0.27619312652446826
0.25655384879888377
0.278104377719053
0.3087074098011514
0.2900575839443138
0.2534329198682658
0.23510593814260633
0.14013001708308875
0.35426452162970623
1.0
1.0
1.0
1.0
0.2533741573401499
0.46702447911088674
0.576595207011448
0.48143214986164534
0.3604329856944958
0.34575144617379194
0.3637681813508757
0.38512864224985155
0.35913163077830906
0.35268765999717583
0.39127401301831854
0.42125024718461274
0.4182421345068293
0.3747593138024558
0.4087376594966911
0.4343520340232826
0.4365932925041527
0.3882454520951382
0.37724146675594755
0.4469817243799604
0.4521423489179157
0.4270067631605586
0.42786723982295827
0.45555331689618805
0.4619056700427871
0.4248165387448409
0.42801688687468314
0.45051156622935756
0.4681329809999739
0.43513518781817406
0.43429041397768386
0.49651175046937934
0.5716722167153767
0.599087336284713
0.6065310227849444
0.6462330404263825
0.666609286393206
0.625933694333485
0.5416279627372559
0.5485565939953918
0.5507031724752246
0.529494394741601
0.46986881116018286
0.4664558513592434
0.49683966971302185
0.4763121104629923
0.4310595315000637
0.42964159386694983
0.4674217857343864
0.4543865284697029
0.41619959887748237
0.3938422479067515
0.4120523916605719
0.4480614904658934
0.4002254530121804
0.36567947225425773
0.4035167430035484
0.4116359354491257
0.40296977235063747
0.37355933072500996
0.4137896370317306
0.5104112734848361
0.5258064833445939
0.5068122765425724
0.5272591805664102
0.6276126129723756
0.6363386665711072
0.528480754326776
0.4779106247293492
0.501326831259443
0.4693203295160708
0.39044106906362425
0.3270536257277876
0.31252642626516164
0.32632322522270113
0.31723176863578734
0.30768661199387914
0.3484033457143507
0.36986784832400427
0.2673611954424662
0.18943679036205996
0.6675068661780086
1.0
1.0
1.0
0.9571170486179954
0.3880542602852846
0.6402194062656781
0.6028356733976394
0.45634136291415855
0.44252241934782227
0.42035472430711385
0.3729218392255339
0.37803478962709713
0.41888089772733944
0.42095553935805824
0.4051482693501233
0.40664748525158556
0.4427737582036856
0.4611156888995377
0.430995157224347
0.41309042560700304
0.4657900913120455
0.47851614300980005
0.439321399191944
0.4291925488669436
0.44672193834212237
0.5043021534735177
0.4932841039014752
0.46748654799643097
0.4945564696665202
0.5356910136785872
0.5183555322318913
0.49970834956899923
0.5033529009098807
0.5453529484168882
0.5530008546057571
0.5470518299626284
0.6130073764120331
0.6915225823312763
0.7235435997356292
0.6775663869221755
0.6530449436156721
0.650599748051851
0.63725918595451
0.5731802545288672
0.5379187181454669
0.5441753460659835
0.5402647396745854
0.4926140680261747
0.47069528325568316
0.47625585924959835
0.4716184043095478
0.4554480829215947
0.42826564575899007
0.43997702203271827
0.4521156476008133
0.4212956737419371
0.3833140080836609
0.395476007455635
0.4329583218617012
0.42217462016448587
0.3807819166434624
0.3823041585634387
0.4348666147556063
0.49867739753465806
0.4944726015512204
0.5022063519180247
0.5574344591859912
0.6391248341617992
0.5990005724574068
0.5035320214612988
0.5016525523806097
0.49414388549225724
0.44675771952497667
0.37673890723014125
0.34593733257026305
0.3778504401393169
0.3627725560837904
0.33704025285258826
0.3592913061348485
0.395025757448977
0.32162232925314216
0.22804986700708238
0.6319383182820862
1.0
1.0
1.0
0.922156149720528
0.40298473035361626
0.627237977640823
0.5876531728669068
0.46605776090724904
0.430735427185091
0.44407653425924487
0.38732310937082715
0.3694156510894996
0.39292101653184924
0.424655101774812
0.4114025488370153
0.38421274708578024
0.41774567714297406
0.4454439437044776
0.43284154559916166
0.39930228655927247
0.40348807326694847
0.4606758281782823
0.4517739095641171
0.43423768631486953
0.46528395003951156
0.49604042325362485
0.4711498166226707
0.4552281859167965
0.45865166881464214
0.4895674490415088
0.49845072641276555
0.4627211694408836
0.46739527291821326
0.4957410733775919
0.5308127337790147
0.5355146917774406
0.5648726638942879
0.6210049734540524
0.6710325531198261
0.6438520544208437
0.6226618138113669
0.6356876046281175
0.6310755852066974
0.5781316481202221
0.5102973770530176
0.49752260566861617
0.5125103307458635
0.4828369022783339
0.44127685942719896
0.4432844322779846
0.4596219558012116
0.436601686259044
0.3950698492800343
0.39255750460271477
0.4295984014836069
0.42165179475433323
0.36161291622799874
0.35830034302210334
0.3913023952074971
0.4133904884564473
0.3779321634164859
0.352049234235631
0.36501333696316196
0.4089811732252254
0.4097015498673742
0.41868707733462135
0.4691343148602834
0.5183179317608652
0.5527429693941242
0.5842221582531828
0.5197413872404203
0.492635575590994
0.45219544552748125
0.4170700014602107
0.3842429813335348
0.35203914852769136
0.32452164472296036
0.2892240117895045
0.30301379773069437
0.3413069294977951
0.3532837397565366
0.3050436246170781
0.2018405042793788
0.42595591216555473
1.0
1.0
1.0
1.0
0.3889820644255503
0.5355787834376371
0.5501325130564342
0.4550391466765847
0.4097947635594905
0.4023853982779893
0.35961698245155993
0.36026624508746297
0.39415851938717833
0.38745890379491504
0.34981498331991656
0.3788432749114972
0.4150027516677598
0.41855261811192424
0.40422901054070726
0.3969690099332604
0.44123718506938925
0.45414760615826183
0.4132854194229467
0.40968316784461684
0.45296082708956176
0.4681689564561159
0.4421496145337177
0.4272222941214133
0.4569431398094378
0.4872637569916768
0.45544075600576794
0.4546421819491996
0.4896425792127272
0.5466439973054575
0.5615946989441944
0.5725745791710595
0.6281045980413748
0.67945274991529
0.6623057567537672
0.6071708973550166
0.5804395968676761
0.5889192187928824
0.5513655780792592
0.4928410429213078
0.4772217912829631
0.49472530295417333
0.4550697671753551
0.41736982877940354
0.42006202001713167
0.44603845849675994
0.4510928620436533
0.41802082189006945
0.39404518821789863
0.4150736902012352
0.42703824254565503
0.39328618819836547
0.3798625379404186
0.3786518014215149
0.3937316924476069
0.3666367282152829
0.34566598152417927
0.35266404169639815
0.39771170105332365
0.4360265889292931
0.4437480616502293
0.4684436997163105
0.5261677749768403
0.5760227158540905
0.5720615926237869
0.4859281643500828
0.4633658646689335
0.4485317013576674
0.4196276214962437
0.3796888904072507
0.3442304749325805
0.33399369896066844
0.32610339710725966
0.30015915311627905
0.3348105457625336
0.36535855247988197
0.3015663988217584
0.2136845388961822
0.5387384050632831
1.0
1.0
1.0
0.6876136283977289
0.4002221960673619
0.5942951381212491
0.5049163805661645
0.377175684140043
0.36920162879735546
0.3765017440263123
0.34569071270965895
0.35140895490516205
0.38685829775973046
0.3773164973891234
0.342018997116612
0.3484361849563616
0.38479907304006894
0.39886592497745654
0.3626073905151478
0.3676497464432494
0.43289249635424243
0.4439321407760398
0.43025205950485174
0.39687176453237605
0.43284935405449343
0.44966214533231996
0.4463441417577461
0.4405490683095266
0.4533319880346121
0.47886073324813233
0.497415679157627
0.4675255858016478
0.48011104184649234
0.5474144564869439
0.5689087132029221
0.5821715538722954
0.6086999793448374
0.6599685563095564
0.6495455994704835
0.6085167548006807
0.5576896215728528
0.5740676308619552
0.5657449085511599
0.5144388940945054
0.467560622725149
0.4759346470367561
0.471913969970888
0.4627475324499663
0.4263065220714304
0.42181617932828874
0.4428011402980192
0.42305337565857376
0.4069355590713267
0.4180749256083601
0.43682779222616885
0.41906210543546746
0.37753641371973695
0.35138279909498016
0.3743446676792638
0.3828890167086361
0.36033988085185886
0.36866297190964203
0.39359761501383755
0.41768443314749454
0.41932307517588957
0.44105941645137775
0.47348485456669087
0.5311754308218862
0.5711092546645188
0.5219474404102904
0.4777891407317769
0.507758867098622
0.45379020893565347
0.41472081321145565
0.3901669674824203
0.3659602445048252
0.34271108997970623
0.3256002310356848
0.34381743922468505
0.38466219150047054
0.3667781032724979
0.33205135856336543
0.24506636794157277
0.28169862588611
0.7948257504729332
1.0
1.0
1.0
0.6221419234882715
0.4007338272947177
0.550582070559238
0.5414254158236786
0.4774313330783243
0.41656989510758935
0.39505599820430926
0.4039581612247172
0.4262473501102881
0.4128610038122278
0.3602855007825479
0.38837892933903284
0.43919271662416587
0.43817956449420886
0.4085460124601957
0.41260249947704597
0.45350264546073776
0.4586362497156317
0.43348256751598396
0.42749401831024897
0.4801645369802382
0.4919527079148092
0.48184164883230124
0.4620343541645913
0.4929502469347451
0.5195049462006082
0.5015369896341713
0.4611353278158612
0.4848710916030273
0.5194212983576458
0.540524404489767
0.5821244452815681
0.6564060170161998
0.6805716259610947
0.6548862327808948
0.6223007555870272
0.6247905879477246
0.6399604855816888
0.5836606791374327
0.5246720407634331
0.5184104380006189
0.5397913774655928
0.5201126431493852
0.47723965061881063
0.4735519396467218
0.4896163285097591
0.47038107181342326
0.43182981118001235
0.42308825397094446
0.4513346730828827
0.46701087346584746
0.42341723573552076
0.4287050962648177
0.43752106140113395
0.45071527532104216
0.4285423703673746
0.4004235724897214
0.42806398742396984
0.4707884630244109
0.49326864656173697
0.49721688061332153
0.5132797891499001
0.5758403053802205
0.6131533911902615
0.5400411424692961
0.4911582496293798
0.5248793904055256
0.5075450704159826
0.45078118596574435
0.4018391881328222
0.37776392817588567
0.3793775127253864
0.3679380561510104
0.3610800639765373
0.3845139508611992
0.4095588629705628
0.3502154621898661
0.23467248867530138
0.3389793927939765
0.9477986686301779
1.0
1.0
1.0
0.6634266167948037
0.43967792901436964
0.5691961893182864
0.5625575203622473
0.5077882885742114
0.44428498461085353
0.42970351111175653
0.41562882652842
0.4472073076371316
0.45147491184532196
0.417613976495689
0.4195042912298888
0.46047781317297104
0.46612520376200706
0.4288992139180303
0.4448003821400734
0.4899110729958398
0.4946318988741528
0.4759394984995541
0.46623435311988126
0.4953079388259899
0.517109003376327
0.4983897678045455
0.48157636131687587
0.5040158016114205
0.5107080881520486
0.5072125665851666
0.46504131462748777
0.4809656877915572
0.512862899823346
0.5133588114735134
0.5029341470136547
0.5396767437228762
0.6080047046879977
0.6530966086886558
0.638929306084967
0.644615470084531
0.6783811040867459
0.6541941473573412
0.6094245473109274
0.5667938183893056
0.5711422360045523
0.5758463002504653
0.5241630163015143
0.4877957293672438
0.4990650389767045
0.5194394715236919
0.4802691249925693
0.45183244287942054
0.4639372247790655
0.4883683433410206
0.4588952536197402
0.43810225322270907
0.4405599131189752
0.4586355534814176
0.44820174224279574
0.4059762375230621
0.4135131576316292
0.44541313219152245
0.43868974723565735
0.40629892454380806
0.43381668460831924
0.5187096063190073
0.525896071289206
0.5060383269800842
0.5566466944394535
0.6224703126358875
0.5762248952940844
0.48418713099909716
0.4515120377992535
0.47070877107048836
0.4532744526942869
0.3742055858639962
0.32532283368341763
0.35669656257068383
0.380685819023275
0.37402318561892345
0.3477679271056737
0.36708048370185786
0.33252701778712657
0.26002642528234887
0.6430447053465765
1.0
1.0
1.0
0.7213670763348301
0.41090840772129084
0.6717899923274884
0.621074294243639
0.4604470940065443
0.41661644738292003
0.4370403019695358
0.4352764342970813
0.40425297090203205
0.3906600336389448
0.4213131654348163
0.4434041558644046
0.4341978057161226
0.4126575456845242
0.43174444558749936
0.467077121740408
0.466126006806853
0.4371860952104892
0.46616155309128005
0.5036780809863003
0.4978718124482249
0.48004621380617535
0.47767107257204894
0.5127091626124851
0.5220147390705008
0.5002897726843939
0.49280407195982245
0.522659344023808
0.5172393156626697
0.4922888773573426
0.4948679054786476
0.5231709093626058
0.5654411263505553
0.5880809184564293
0.6072049436305781
0.6597728718845687
0.6755001931381637
0.6669773185052962
0.6466242436854623
0.6458032079512871
0.6369420634415237
0.5866094425056618
0.5270973120998723
0.5199820426588245
0.5412141944778736
0.5126086099912859
0.46933665271899044
0.46130887121088826
0.4965638204847985
0.4879688640722951
0.4432993888590599
0.4388887381007396
0.4653195755563285
0.4491384214633868
0.4280495305239625
0.4128914822923129
0.4191785849039241
0.4426365750341656
0.4186969062830615
0.39299672664138496
0.4253532331157809
0.44239503478037345
0.43393481033611847
0.449124593067537
0.4978041589884241
0.5400316817789885
0.540446093833718
0.5762022483964518
0.5917181494992635
0.5402142721126859
0.5044939914038006
0.46956454727962765
0.45619543828813836
0.4409230928286684
0.3783881652208505
0.3398623138448628
0.3497463110981813
0.37017905054994193
0.38192386702303416
0.3631555148518256
0.3582669577687995
0.2787685584688536
0.36608522785303854
0.9640075705202115
1.0
1.0
1.0
0.4272834300992588
0.4999182405166577
0.6499677388703269
0.5567841008108446
0.4479676203902484
0.413340727001963
0.4156093805330466
0.438366656937779
0.4307960698180608
0.39406292286704575
0.394247951405112
0.438697698218236
0.4533267073254435
0.43213489267129024
0.42782433233974854
0.4603013159912748
0.47828896941227733
0.44712262178680867
0.44568534142676786
0.4752693718208555
0.48625933994260906
0.47149279826159063
0.4603835993946537
0.4916034714500226
0.5022856120513864
0.4808484618232799
0.4645463273666125
0.4817753654506496
0.5043780098723166
0.5057744333272065
0.5012036941452715
0.549336635664867
0.6163028420936183
0.6600302299372316
0.6407792202332758
0.6585854776455315
0.6760346043752157
0.6440502677960532
0.5782451406462429
0.5447969153834589
0.5263393141685448
0.5108568438058244
0.43956231283896835
0.45549059185212054
0.4637518493052803
0.4866906023428007
0.46159466431494856
0.40881946624599086
0.40952857613948135
0.44885295421295923
0.4278177244216813
0.40304979530423574
0.4176470175615773
0.44265013624907723
0.42869061077965515
0.39633196230314766
0.3802116924489672
0.41340749467986937
0.4188697281750871
0.3979021756906674
0.4318675884578023
0.49232873853599946
0.5405806207342614
0.5261548999190525
0.5678313060809181
0.646383731080914
0.5854165499758579
0.5118108026721983
0.4921248966197166
0.5093661196896183
0.4884440106562896
0.372610234208661
0.31717935207872017
0.3499347886672172
0.36636113636499046
0.36291316943337876
0.3450756249769422
0.3802543055854498
0.3697267487670109
0.27931121067210185
0.5853476637205712
1.0
1.0
1.0
0.8516767746106861
0.3844781179348974
0.6096393012254608
0.5911395581896477
0.4594379574564413
0.42115289767540504
0.43427940409134014
0.426755869686933
0.3994181842296144
0.38272657321476033
0.41362440039237686
0.43251313780572553
0.43479705807038993
0.4127703115297626
0.4422825686699331
0.46805667386484523
0.4358740376085507
0.43076249312089887
0.4706851327803814
0.48896107809338185
0.4760258131002706
0.4643123183092559
0.477320002219333
0.5114871425638776
0.5126086256270743
0.47849020524925895
0.47623952929002017
0.5265870392492584
0.5564533641888102
0.527263941423874
0.5177624301078134
0.5722925680122818
0.6188028040573514
0.6317195070246744
0.6123382057384251
0.6537386486248268
0.6629615631229514
0.6131234146256339
0.5626995998366368
0.552139184768538
0.5398366406978937
0.4910387272575572
0.4651448408992992
0.48168390638002323
0.4894195011484405
0.461686297533197
0.4404021873439672
0.4364629012056982
0.44640402405231117
0.4468061892244088
0.41035445269928256
0.40055638675445965
0.4144079947240549
0.4363306025596427
0.4291013303011364
0.39018517323664914
0.40159562035411545
0.41954810314731095
0.388697107703297
0.37936656284326886
0.4526443761062316
0.5153744963870965
0.498603330913827
0.5016665207689768
0.5922345535264825
0.5911763214276172
0.4867087186937444
0.44956903541805626
0.4587648852256718
0.47692625762051166
0.3948872167688202
0.31764912042903026
0.31634017140868476
0.3667263776955888
0.37801054805496903
0.35474018319831363
0.36045660647473177
0.3277349387922105
0.27848010918452515
0.6303957538307101
1.0
1.0
1.0
0.7715078605911634
0.39764823297765217
0.5795707422194455
0.568362785622373
0.461435063670341
0.4019167771313434
0.4156345809959247
0.42565171833484367
0.40637163557523337
0.3766660738777792
0.38115280953416525
0.43714329317681777
0.4476816103861022
0.421648120255977
0.4219635186535388
0.4460517680062219
0.4455965278460092
0.42610584537985136
0.4286449609006485
0.45920451108804966
0.47163434833019524
0.4194021364361813
0.4171031123046641
0.4498530086955087
0.4885491862274357
0.4736892625455436
0.45150016343758903
0.4864771552532914
0.5237945332531906
0.5212013200424463
0.49217353821644894
0.5138173032057036
0.5915700744457941
0.6228789250293076
0.6272942332473586
0.6642596596228836
0.6868833733697718
0.6407492278498914
0.5897386156714871
0.5467955409434895
0.5279831444283622
0.497843869009584
0.4559055016477768
0.463421155122428
0.4994653612175387
0.4866716119845986
0.44122737102360166
0.4214306932065853
0.43572976690447074
0.4438435168732745
0.4071851609181759
0.40035382370832967
0.4222382321582147
0.43626255338795783
0.40444230118818786
0.3885091944710285
0.3975376674691695
0.41671781333238594
0.39519342862874984
0.38146696460093926
0.40523869924017086
0.4679876280305999
0.49279645748429557
0.4686211374944171
0.49495308119023224
0.5831038889276752
0.5795240008204464
0.49237930753066134
0.4526677495026554
0.46896224633259587
0.46666880008796996
0.3981211790303719
0.3303620509464301
0.35291306192732386
0.37399937807123
0.35811738978316787
0.33167253088360804
0.35837017039197755
0.3761417722639062
0.25914697403788534
0.2503783387754355
0.7786196475836966
1.0
1.0
1.0
0.6792242199249436
0.4321274254243949
0.588023974568433
0.5184185958863258
0.456499452185521
0.44251956199764103
0.42911081002509704
0.3896512048151214
0.38144403945295086
0.400868651594953
0.4118245475473142
0.38583373383194675
0.3847671294993527
0.4151210286734924
0.43795701214881777
0.43506607231798966
0.4133894010843773
0.44896007029773166
0.4809282401056416
0.46045569875503756
0.4415106686729655
0.45463066871168073
0.4685772956746616
0.45940239447720693
0.4430467760542013
0.4544750558170837
0.49025597608236915
0.4870320928995093
0.4602376711318336
0.4674751238736595
0.5131222071199119
0.5277525535139556
0.5284230447163308
0.5432513496495954
0.6295649604324332
0.6607110098571705
0.6409474573884724
0.638348231542947
0.640482644802365
0.6281317940728489
0.579114909711986
0.5398635437878564
0.5476382483465081
0.5466142527739317
0.5234206541920935
0.47996229788340805
0.48624049283604853
0.5100316214610144
0.485232816718003
0.43912928774439697
0.4402543197611431
0.4808277448577229
0.4650835797281114
0.43489712905261835
0.4336732057575065
0.469836749573855
0.46729069403466755
0.43235277124424576
0.4210304870698568
0.45098558850860504
0.4526233508681054
0.42711615219281096
0.4500582124374529
0.5123101690957551
0.5585903429106855
0.5311257610473369
0.567961935769149
0.6339537933807413
0.5943592285155858
0.5328264037218415
0.49438095098595447
0.4860136738985391
0.488753108700422
0.42594172262688684
0.3668889165735044
0.37889995499614854
0.41435321345786813
0.4161892155078718
0.37857106660932266
0.389607264065317
0.3573162390578763
0.32273025509242986
0.6621619280660863
1.0
1.0
1.0
0.9723782754246297
0.42792021890209864
0.6599686855560991
0.6802236509020425
0.528083143115041
0.44971427043993123
0.4724725558641172
0.48802601836077386
0.46037153171893275
0.42429028145049796
0.44113554210504213
0.47026174184972647
0.4651996104154973
0.45050781980625815
0.4559485455680613
0.4964143690461169
0.49629895440043
0.4790580569189064
0.49082779106995594
0.5272620287934427
0.5277302453404683
0.5007593584322991
0.4934557847974612
0.5324894903460203
0.5476222844375112
0.534846659215522
0.5214663116915714
0.537285524508058
0.5634401364320212
0.5363076302230805
0.5377444282374334
0.5856250359494466
0.6521642144391755
0.6871523267076143
0.6774180219603788
0.6981207701092469
0.707535368108952
0.6809021189972299
0.6234029167893059
0.5925466646384197
0.6096625180909576
0.585704888826722
0.5424317921795364
0.5238822911381462
0.5532037073957269
0.5549265826745107
0.5075815772321939
0.4809079530925196
0.5161591389371598
0.5146273600244821
0.48778382107183854
0.4637473566258108
0.48520332425210916
0.49441895971268524
0.481572106169782
0.4615351758421845
0.47481453560521547
0.4984136684060368
0.47115486306490506
0.4508968572902322
0.4692262182407994
0.5134641906172528
0.5465995229096519
0.5310419967182867
0.5542994616035284
0.627062701098074
0.6731602848650239
0.5812402067870509
0.5328813205469225
0.5416685809976473
0.540710161733642
0.4916390401529882
0.4294872127485463
0.42263120883327854
0.4263732761739102
0.40526070642249434
0.39802381355872873
0.42851004722273284
0.4447775159447809
0.4045122090856781
0.2967376994239765
0.508650790576489
1.0
1.0
1.0
1.0
0.48121739735807945
0.6061548760591581
0.6434370973551139
0.55492150433741
0.5118340918981306
0.5079870309137754
0.4712137782609349
0.4528120464634827
0.47693585483362266
0.49388837229096955
0.45699048759573246
0.45211829359710815
0.4942572814749818
0.5276469378388756
0.5066429038577224
0.5010926394186177
0.5217841474805197
0.5495587862264385
0.538943218541841
0.5268865444592261
0.5393986542321019
0.5477762833365869
0.5397930525291534
0.530300826283486
0.5457144161237152
0.5810762924725934
0.5798693185795162
0.5515399026003244
0.562930312353547
0.5957784097705439
0.6255784409581946
0.6470627132106432
0.6691909568725545
0.7231364634624887
0.7459130143463779
0.7103500767753465
0.6861005992391862
0.6855872249682196
0.6751046272377546
0.6078150979377839
0.571645391653209
0.5878635894124682
0.583158399796356
0.5506841667810559
0.5160462749205711
0.49464506270045244
0.5261380396334074
0.5112365839449315
0.48183281124474353
0.4850028055197474
0.5056942226109072
0.498095089433323
0.46853823903776604
0.45376876962515783
0.4847726628286207
0.4854046173083373
0.4495202360369695
0.45040720406576795
0.49946048651624064
0.53234520582859
0.53381318975538
0.5652460747184673
0.6030767270295079
0.6833065353082546
0.6293388908605473
0.5399915430323481
0.5580232511131267
0.5606229529554168
0.5152499845479419
0.4311984449715385
0.4176979655855405
0.4528775717455658
0.438342928783482
0.41519223419891815
0.41273199312190395
0.44334869515212
0.3549486358658142
0.3699660386090398
0.8692639544593007
1.0
1.0
1.0
0.5851273209456317
0.5141792375170107
0.6969500959208765
0.5944185477782162
0.49870232667789727
0.48283313075952605
0.4879705842719698
0.445320858914864
0.41337897478034175
0.4379604201613735
0.4769511977392168
0.47853549154503794
0.4602132523267737
0.4833551966318549
0.5164107526363685
0.5238650032797232
0.49694322559860205
0.508939971212218
0.5251812943990479
0.5457038672601235
0.5235824940689944
0.5143732702312475
0.5337306787218237
0.5347034503558076
0.5157340128575136
0.5147743507864442
0.5540716822843146
0.5637156675559526
0.5217368355522135
0.5056485610853676
0.5690352414510917
0.6449170940944382
0.6482806820793756
0.6564091290576783
0.7097828733422521
0.730855652352565
0.6892649653501454
0.6489137358308468
0.6524156372382873
0.6393827042663951
0.600354427481923
0.5351926255014875
0.526824474795163
0.542765919206113
0.5113954591028211
0.4500439638122614
0.45506230149692195
0.4933641735300087
0.4944331588921614
0.4521988923654187
0.42852406591859216
0.4627305135197285
0.45508033182408336
0.43526935154523994
0.42971888912542866
0.44995169536587964
0.4509112181626865
0.4258137827415486
0.3830417015755982
0.42825464942130387
0.4963266134345214
0.508918393280044
0.5037261131958498
0.5393365282677955
0.6243933449795315
0.6242761597926574
0.5039049259742017
0.48020300703169766
0.5188397670445621
0.49952595903696884
0.4336336003654348
0.376389744474915
0.37889033296904984
0.39124317440752987
0.3525832303430033
0.3549949914460525
0.40192979522246935
0.39218832690683625
0.26045906692926135
0.4580259214835124
1.0
1.0
1.0
1.0
0.38895285332690255
0.5676889206571472
0.5644427993490039
0.4750137737026289
0.43908999672095544
0.4548532934807148
0.4335015591477954
0.4021121465794172
0.4010860594535644
0.4398469636186477
0.4537949029006068
0.42819485289193493
0.43700929174069153
0.48144406332651746
0.48911046685109233
0.4669183942450587
0.47252104589878413
0.5007298938150045
0.5199532873159749
0.4908046022150011
0.477684718160382
0.5174109991164668
0.5647294600076582
0.5159020598294752
0.503031621492256
0.5547296228612243
0.5625082630929041
0.5488569003868832
0.5564531926390426
0.5996540047133649
0.6713359835810662
0.7086598064396605
0.6921511353254802
0.6998227089170601
0.7324673157531619
0.7201984812523122
0.6752003387638013
0.6395347046375043
0.6278678234533761
0.6234329898803124
0.5689672934775059
0.5111931536118092
0.5443457143561059
0.5458461030503273
0.49215607299156316
0.47970977563217687
0.512021824929376
0.5175855748636413
0.4901761616115666
0.4651010616927719
0.4788621663996711
0.4934793522436605
0.4579979872020098
0.43703345796828696
0.4572494023897794
0.49413918299582005
0.5097383271518857
0.4640521589747896
0.45660514947548475
0.5152663731752037
0.5474774597239788
0.5258742459203604
0.5478863254039394
0.6629975015382985
0.6369002426230354
0.5402753624335844
0.5154163462319927
0.5176850958733727
0.5155107806312655
0.43606293498557414
0.3644589833783594
0.37299314996113736
0.40965488121899696
0.38719554954002994
0.3739571431875036
0.4044792456978482
0.3821158590449545
0.23348400417245946
0.5020167721441632
1.0
1.0
1.0
0.9466338497111556
0.4045858163153211
0.6172416950398137
0.6073319339492779
0.46826697439429815
0.42969589406978015
0.4645154357080227
0.45014491177572047
0.42818967954042425
0.4124037363677756
0.4311140973781137
0.44644387514630807
0.43605840942084323
0.4134291302881932
0.45506989898279804
0.49479523240767076
0.4778210032885907
0.43685771975634
0.46980543177614786
0.5119626928962611
0.4906260667311722
0.4523507948735538
0.4760820325968374
0.5106430685261796
0.4733196888995524
0.43399878699246947
0.4604041641487244
0.515986732074688
0.5130658313833253
0.48186684505665944
0.5183364532675971
0.5834148952078351
0.6391586535608677
0.6410903692583909
0.6150327451404027
0.638883122675142
0.6446826654989735
0.5699971893917326
0.5272750218647669
0.52634086078224
0.513205074468283
0.48236860183682956
0.4498090228985805
0.44962537185988277
0.4846780796543748
0.4708170975504199
0.4396223117642696
0.4428340552763149
0.4808969535964329
0.476600183213467
0.43344262888729324
0.430855597953121
0.45057194987423355
0.44755311047212887
0.4135926754738598
0.4003478755337763
0.42468025914864055
0.42613100531811465
0.4063915937801658
0.40966225661336503
0.47606849617143565
0.5331712770359286
0.5253328424939988
0.5071225017963857
0.5832030743321249
0.6312621022594219
0.5323277534747858
0.4820940818057613
0.49352521793349335
0.5085935485910532
0.45344555148664495
0.36770051206623017
0.37451139818291435
0.4033892758974176
0.38971322328332
0.3738947229094879
0.3844019034003281
0.4078640136086335
0.3510588865790106
0.24720733991009985
0.6310057083842163
1.0
1.0
1.0
0.9771462550707215
0.41146234352125255
0.6270366609531027
0.6277074359808952
0.5268093695830289
0.46737428199224745
0.49145437347522736
0.4653072773238612
0.4326946083122151
0.4450560971719635
0.4744631263105747
0.4734324022118043
0.4372829707222067
0.45471818360093214
0.493660676419801
0.5036358010809463
0.4858647964606059
0.4835590466306129
0.515566098898286
0.5185567786462212
0.4813050250852077
0.48761962690840405
0.5420774737270542
0.5487666112440489
0.5069837132713636
0.5028578275237152
0.5147450547157749
0.5532249199263335
0.5247386849656961
0.49645680756132693
0.5488588643122513
0.6127470827041341
0.6240233510616473
0.6407215135390845
0.6963489904657657
0.7378959289620959
0.7104149135154187
0.6648800294884053
0.6607693575393961
0.6640763462204904
0.6280739229164081
0.5554993663725606
0.5435412229005591
0.5548745918918943
0.5521307804507012
0.5077847203342299
0.5042993364989072
0.5265292245129857
0.5269686258106523
0.5097877963501574
0.4755113681370905
0.5056601877195098
0.5061644695284422
0.4851472913021512
0.45801662575756197
0.4818805394062582
0.5078353521016685
0.4835996540414495
0.44001229060829444
0.45969915276437945
0.5077418972950365
0.5510887184006006
0.5496825463644301
0.5684484712559014
0.6229686257264169
0.6884176849865076
0.5894499511439263
0.5252551165827726
0.5561291048748112
0.5390523329824741
0.47843541427884845
0.4241845334990078
0.40810267251945564
0.40977998968909163
0.3958227068173194
0.36558713732964754
0.39530057175064
0.41807556312902266
0.3873945109892561
0.2857313448534176
0.3497654005979549
0.8917297672538946
1.0
1.0
1.0
0.8917032810194396
0.47762733604561997
0.6557901083606053
0.6387970247165079
0.5556966283507282
0.46322645345222463
0.4382280287209343
0.4305696445291184
0.4499665330425063
0.4598799457023118
0.44462272038807127
0.42282416702389225
0.4655392462260822
0.4788549410184749
0.4600411904325289
0.438396324782558
0.4862500823077454
0.5262232194389831
0.5113400436529968
0.4921836644004992
0.5138205811289225
0.548443615561342
0.5336205231895518
0.5012364984994504
0.5176695463533569
0.539658572082969
0.5212800629516972
0.5032848675873457
0.5158774944085464
0.5612939884004197
0.5644879837450506
0.5413634283174071
0.5553672863011124
0.6133109305715355
0.6662089129405173
0.6569185920926659
0.6782613894949179
0.6954041711397816
0.712891277519781
0.6673109452283742
0.6030147061123319
0.5865846477913987
0.5752573270107012
0.5203976967295555
0.48472355106815995
0.48840462536133317
0.515325986393582
0.49062661260680196
0.444208920999313
0.45014814458603497
0.4829984033670871
0.4645597060007785
0.4168938507630541
0.4240707249150938
0.4518641250118198
0.4489391547322379
0.411752836292348
0.4030276558117677
0.4328028956361509
0.44510458010865406
0.4031999836477794
0.4180602865574068
0.4782851148589069
0.5341526368980133
0.5236956030928626
0.5179994893344982
0.6045357064381479
0.6391019860917815
0.5212795126883609
0.4621569949721865
0.4726186955517472
0.47948181377973115
0.4089326626408566
0.3131279716887476
0.3195009489299315
0.37327093092299135
0.36302830997754976
0.3314886837408636
0.31279577938612624
0.3396890540181422
0.23434613188197817
0.41189714445837877
1.0
1.0
1.0
0.7302236176423405
0.3140834400384279
0.6181019289660907
0.5784231878809198
0.4108258980280213
0.36783493799075223
0.37912134380305185
0.39985944594719325
0.3852938744034044
0.35303740561707786
0.361946496321361
0.4080936000925905
0.39473067374011583
0.37175499462368966
0.40503710085412514
0.44514762296057153
0.4507636975679802
0.42007424297963947
0.4149757610968713
0.45692790108450704
0.48646402753508344
0.4474762846352679
0.4463246336030453
0.46652260860584926
0.4788507966922391
0.4635038353148745
0.4469126018746109
0.4973694217757744
0.5174500812672069
0.4995422412682192
0.48887205991259153
0.5545698851682542
0.5908188304147408
0.6073509568155139
0.618997889911799
0.6343668781982433
0.6490006421688104
0.6261803930174447
0.5690629720342567
0.5563156481469674
0.5406179278243474
0.4890824043199
0.4352447607681236
0.4317857782625801
0.45616750843272297
0.468186251660544
0.4280446376568898
0.4055490932012944
0.4269319985645028
0.4377428071582801
0.39435613921766743
0.36610628254806843
0.3880524144620924
0.3970665616557007
0.3666815971174239
0.3311573278908614
0.3748162059382655
0.41218206442343935
0.3976748628434807
0.3881715830245228
0.4514879147465951
0.5105151040893172
0.5083922112622726
0.5248841684956422
0.5815814644205963
0.5385962320892453
0.48360180802631814
0.431960850902139
0.4049896056680017
0.4123077770425244
0.3514364314046913
0.2846616415023492
0.2778560282450675
0.35194829415415463
0.34461216872782663
0.3027893503056335
0.3043611491121089
0.2484820112758661
0.2926120692514402
0.8397842821619961
1.0
1.0
1.0
0.5127116060750749
0.37730174769353675
0.5605908578085371
0.5100695508657751
0.40639696562835237
0.34005096158788917
0.3465260080140027
0.36539296608812466
0.357632454492371
0.3325239186709523
0.3577418653078281
0.40383475562818755
0.4060074273959195
0.3562898414920457
0.3444475248418625
0.4042519434356432
0.4069370009871551
0.4062828886460138
0.40688178298949185
0.43336641406581444
0.4545378221280286
0.42495645321488207
0.3872598530088502
0.42740946314171185
0.46938861843238244
0.47467603383035356
0.433624999872458
0.4679294748002336
0.5017524630020382
0.5086953878640865
0.5031976031785932
0.5480430543332133
0.6355750762808533
0.6521832264266498
0.6307333945699309
0.6125679664826543
0.6392980212950038
0.6215681275590643
0.5408827401078066
0.4791624165735448
0.5131772114087527
0.5161263351467742
0.46180143568298576
0.4415241008180494
0.47108274462175326
0.48275144265780423
0.43761649531874924
0.40031143235982025
0.42538795346240327
0.46226278683831074
0.41783437906158866
0.36762937750487923
0.3888915636987698
0.42495874353637164
0.41566323357969004
0.3646645883340692
0.3944967780032617
0.43681955339350437
0.45810852299851
0.45869204521312135
0.46478468654066385
0.5336977582792776
0.6211933847707767
0.5923186434618641
0.5270419375250008
0.5499187507703588
0.5300757064092749
0.4732401876883636
0.39038108579872366
0.3687054953843979
0.3534924484098118
0.35210828884854284
0.3565850785660102
0.3773930759863243
0.39918412179659474
0.39283069328127285
0.2558965906761036
0.31983821626751485
1.0
1.0
1.0
1.0
0.5837371854109337
0.4546780712468366
0.5727931435792061
0.5346882305931562
0.5002618744558581
0.4671410600436648
0.4170975156647895
0.3714276205303128
0.40765191575476456
0.44090500943665145
0.43194980719558007
0.3984112226924002
0.42423080391607265
0.47943935344585575
0.4830195243058001
0.41782477052219996
0.4272273771886225
0.454382073594276
0.4560460473943995
0.45363574932785167
0.4817915658437165
0.5168690922829035
0.4784083546130942
0.4462516667880377
0.4704708193926394
0.509170487151816
0.4922675695873121
0.46344080459270104
0.4441237196251316
0.5198737173880094
0.5549143892388332
0.5540153723780016
0.5883343321985322
0.6757532560576264
0.7100103249033655
0.6730882039039606
0.6382023119018996
0.6291699764778803
0.6090619667074071
0.5633579907989703
0.4927753070541576
0.5001357310472333
0.5185798770709333
0.4958533119276045
0.443144340128632
0.4531490685352356
0.4798369587355051
0.46647461172101085
0.4300096099352265
0.4404175070021245
0.47837605102322034
0.47373394784045175
0.42057914244461747
0.4166177232903069
0.447252141327059
0.4525812631046032
0.40765603754443813
0.4052709220827853
0.43712582512428266
0.45062335610886234
0.4849830682711441
0.5096196515518008
0.547556517477646
0.6143008603888485
0.6373651864814965
0.5605548584117386
0.5463370949767932
0.5579886460711407
0.5079694528765333
0.4555333156389444
0.4252039248585765
0.40664623280712053
0.39262114313657115
0.3648059536395082
0.3768144976992418
0.41608409908997723
0.4170870339866596
0.3922069917368522
0.27932301744557997
0.2552367302284543
0.766776004115573
1.0
1.0
1.0
0.7307435988695202
0.37001090429426614
0.609985541966284
0.6229727481170697
0.5534256750004254
0.4681164400900557
0.4366586457773146
0.4416175639153751
0.45775665187806114
0.45230237603060813
0.41467620509714215
0.44576105674179234
0.4990701559444656
0.4981247216848124
0.47537338917304794
0.48335400532681955
0.5231582080049473
0.5266313449210193
0.48971825052071943
0.48837378627448463
0.5307114042639698
0.5441244025370532
0.5369595800642062
0.5130603002939945
0.5302554146899852
0.5608341031924049
0.5119279109645593
0.513796058678154
0.5470080698772792
0.5782666282202438
0.5700589730787511
0.5518817750998657
0.5964066922985123
0.6641813981231428
0.7080542341796072
0.6971057505231942
0.7219429753662514
0.7724563635279668
0.7484764685262956
0.6916497889714184
0.6649208578587447
0.6473710903986851
0.6205593019085782
0.5754487209238766
0.5584943690328376
0.5720795355168402
0.5772759233124712
0.5254687325712847
0.48659035325090505
0.5150038483883963
0.5397289707621453
0.5159476678283347
0.4870530172691369
0.4931747607048587
0.5129281781458024
0.49213222092418335
0.45970740714597175
0.4692525930006493
0.5080260800948885
0.4996534847895246
0.4585670512829746
0.5014539013483678
0.6012158052132643
0.6149846225506714
0.5995863113183433
0.6298805388223995
0.7231800594797158
0.671900290990256
0.5857123459580531
0.5435219482135807
0.5646147019616182
0.5560786940834588
0.44829786434294727
0.3941060418606254
0.41844976083410146
0.45951335443415137
0.4475904112803694
0.41624532658160074
0.44873089222049745
0.46754704123566243
0.3275258960724156
0.5236481625438023
1.0
1.0
1.0
1.0
0.40154361970679125
0.7416285834809988
0.7347546466106744
0.5364166177962617
0.4903315416617831
0.5162519289571033
0.5176191604018767
0.47586234516727843
0.4664208457465409
0.5056778284127669
0.5041498465467834
0.49041057353603285
0.4793155487821258
0.5322800832697289
0.5582921090484174
0.5471159131719696
0.5175564192017397
0.536119940029561
0.5520275246397637
0.5441632299817205
0.5311784604967801
0.5620540023851289
0.5942668628041093
0.5756411420230055
0.5471314158964475
0.5559699630100423
0.5993603736958222
0.6019781883194752
0.5725030648565026
0.5854821092101591
0.6581524242171278
0.7256557739909972
0.7309086290384006
0.731522809818261
0.7725424679203006
0.7651623926711484
0.6970711098329684
0.6481949111259044
0.6328815321789392
0.6317403281347043
0.5881059978193038
0.5532021818671007
0.5660450349249666
0.5784854566299322
0.5573311151627209
0.5195956471681138
0.5213841521389951
0.531265760509231
0.5211327977535245
0.48733300009397046
0.48545775069239283
0.5273551435496572
0.49248802607519504
0.46946878223730126
0.46312990740680365
0.48878337681529455
0.48812795570957757
0.44109544110370036
0.4690599874149412
0.5196932159922143
0.5879391173062073
0.5924574720632921
0.5887382740251003
0.6441472463391145
0.7288802632928812
0.6625705244854381
0.5487999471335491
0.5699549731448403
0.5791719004315716
0.5421379551240607
0.47378782561210314
0.4274726999865076
0.42227069545151946
0.4187582270913854
0.39702911700473126
0.4088246302541762
0.44209418681758983
0.44596123096159757
0.30980233295149834
0.3954276509700071
1.0
1.0
1.0
1.0
0.41292870215348876
0.6049583430411943
0.7002876158725508
0.551445381660504
0.49277744557215375
0.510776773754536
0.46482245314288895
0.4113922017865782
0.4573639884742137
0.4775442952600294
0.47126909603169276
0.4295221372630856
0.4552043369210427
0.5011879599460609
0.5033096447446234
0.46802978826325214
0.4866889828703818
0.5223312251230204
0.5344738761200947
0.49743029164446756
0.5018042902587794
0.5104463115866633
0.5390490378256791
0.5225964458932276
0.4915867875112555
0.5283037608447467
0.5528298233051274
0.5287209549176091
0.5172131811980953
0.5661598957101338
0.6008834734644996
0.6150109426488217
0.6336992699318509
0.7112731418720523
0.7657730971168734
0.741988427264091
0.6806226794793895
0.6535780232057632
0.6339050321683554
0.6012124171898041
0.5420809882394796
0.5237772595630249
0.5452508616012224
0.5251795722090015
0.46887240274268754
0.46896779421148677
0.49213173999608106
0.4879956224346909
0.4269685399035075
0.4261042983778774
0.46329957229978713
0.49151379699140174
0.45512027629431984
0.4016800751638147
0.43171173242019334
0.4636441457036312
0.43931593265610197
0.41689561398314307
0.48176488364415154
0.5487747852978464
0.5585654585138681
0.5446482994596383
0.6074615457719638
0.6648992021473333
0.5950095767934008
0.5036641836049021
0.4965509276071637
0.5107909216820586
0.48457583440546026
0.3848842325147833
0.337246312639885
0.3698940325809411
0.3732153261191085
0.33277348157075204
0.3422919005202929
0.40327360463310963
0.3974535260528458
0.26347987025885544
0.5077421663088064
1.0
1.0
1.0
1.0
0.4358418420657502
0.592681227588134
0.6498011633884455
0.5057864295645078
0.43407281054620733
0.4411507783680662
0.406588224134463
0.3716411133091869
0.4165903765531372
0.4583138919582776
0.46282016892521627
0.423523975531256
0.4290863361667525
0.4682066445793863
0.4797645089073548
0.4552277045278606
0.4312233128648838
0.47731106664477585
0.5373745011071245
0.5015439144131123
0.47409556732278774
0.5096572760273823
0.5400718217038307
0.5150600568794252
0.49389960253866283
0.55183888244865
0.5938260042986554
0.5823924268106829
0.5416615313663657
0.5628583043361702
0.6694836982308313
0.6952026342031213
0.6912480954171188
0.7402904322088567
0.7976134156493906
0.8066944183536731
0.7307886184982528
0.6630655440706702
0.6469471120826735
0.6576273545166961
0.5983401764360535
0.5575123355866893
0.5598659623379445
0.572615796651997
0.5537550622613064
0.5167672579734394
