MLII
0.5
0.36510184810468094
0.5
0.28816521046187127
0.13750910681511969
0.2217185354186056
0.28427671805874943
0.4158686679048807
0.45241896374129736
0.4311157427215832
0.41611637944531366
0.36763977927856206
0.3808812545261842
0.4677245518370654
1.0
1.0
1.0
1.0
1.0
0.4993528259161287
0.42789119044534524
0.3979658667519674
0.3701066425267866
0.34839352476865965
0.3499378700806041
0.3727638567525651
0.39418493548436045
0.3898247470049213
0.4069570968087235
0.40877260946004756
0.40941169153248236
0.41960996767592496
0.4144050057221841
0.43101483323656514
0.4325509240523405
0.47113918190956927
0.4679095083316128
0.5007419223539462
0.4961322449780261
0.5626857747961389
0.5617759323828221
0.6082241127333525
0.5989220560181506
0.6412505033521989
0.6374216367621833
0.6679605532103066
0.6358196068190293
0.6398743886055845
0.5787891730664028
0.5710432250616411
0.5202573522083165
0.508301820200576
0.4727903149003255
0.473847625235203
0.45931373329118663
0.4675267585879877
0.45269546522054427
0.4564330880341406
0.46312574509398674
0.46525840191529283
0.47930308730972193
0.48397858357339063
0.4915874888892569
0.5002454919362485
0.5416536582333934
0.5677545435261314
0.6857606971518727
0.813100111078312
1.0
1.0
1.0
1.0
1.0
1.0
1.0
1.0
1.0
1.0
1.0
1.0
0.6784812755621379
0.33415293244905564
0.23669670896458733
0.17361491888195832
0.14404810007766428
0.12821393979971935
0.11992410323487364
0.10399604833007525
0.08955427236552102
0.06734140814363779
0.04963335895162713
0.043114450956472615
0.018749732306184087
0.02729063908624143
0.0
0.00011192198973688505
0.0
0.041160966921201324
0.05677667669967823
0.10201188322406467
0.12763859133849226
0.21149769793167836
0.2529060251081309
0.3157814456411809
0.3515494655246626
0.39872748391398716
0.4110654075462782
0.4329304783111902
0.4291856855723757
0.4365121504539002
0.43992467475117697
0.432758149785048
0.4426337634242753
0.4416856629348843
0.44298431763688645
0.4421228107751013
0.45429200815367177
0.44543354312640593
0.46383158636331795
0.45314542705238814
0.4800458523628146
0.47179474109432373
0.48784847751492233
0.47326149832258324
0.4906568934878943
0.47712913911418314
0.5006839407168935
0.48608920466045014
0.5
0.48997747882354836
0.5023433372252692
0.4926876562603818
0.5
0.497658109765218
0.49915188169875124
0.5001710160158014
0.4932324219096243
0.49842503323071474
0.4987392352260411
0.5105312277238933
0.4979428614384959
0.5205797129320858
0.507293842379865
0.5224160587721987
0.5087395013363664
0.5259874680511153
0.5055710251595225
0.5352932931998582
0.5277515025313082
0.572648939308881
0.5674490759476595
0.6332198505912088
0.6112306058182099
0.625724761122744
0.5892972384864739
0.5682084185947438
0.5125633110034886
0.5264611803889762
0.5007741482602047
0.5075752621332092
0.4827438366842789
0.5148458557699335
0.5007538171289773
0.5139090963862316
0.49860820110722254
0.5590544239866422
0.8508786237442927
1.0
1.0
1.0
0.5912662063085745
0.48549315940951765
0.4935297203154704
0.4805625514486718
0.4678859699004492
0.45319004507091415
0.4575808899513628
0.4637423659364798
0.46531993409864186
0.46614388078034336
0.4815564507070372
0.48250655154582256
0.500273111767536
0.5019057582632446
0.5119464611967597
0.5315525682204665
0.5393172331498703
0.5582542224918716
0.5783411358557211
0.6140760990425104
0.62536856712166
0.6833916198817663
0.6969459577094864
0.7589893918165089
0.7640136034123577
0.8158848913343549
0.801180994971654
0.8406398942403879
0.8130554127586237
0.803650180121713
0.735335529868782
0.7052275974987456
0.6482901427060705
0.6247667443454628
0.5804251515723564
0.5581356053357921
0.53217346303153
0.52193951815782
0.5188369846027236
0.508843155675728
0.5212580340946837
0.5008292035028015
0.5206926014628231
0.5025888007061169
0.5376004756685805
0.5108477759261671
0.5347296644284846
0.5028097214147883
0.5440083679134385
0.489456563657827
0.5308025532893452
0.505369691966514
0.5683362479593659
0.5542363722231692
0.6472045934640887
0.6309304260300499
0.6626087346149512
0.6073742192107592
0.6007181245143753
0.5292116007683658
0.5066762738482966
0.4837214051465305
0.5520212279651118
0.6398587634172619
0.7974543488173917
0.9708359079314162
1.0
1.0
1.0
1.0
1.0
1.0
1.0
1.0
1.0
0.6639151790416161
0.3807288552017499
0.36504981064386727
0.2749544722694518
0.2845013602134317
0.23091989841409802
0.24970282357786724
0.21873003739088065
0.24561906044736864
0.1979230560286179
0.21716830582815963
0.18517332481379273
0.18671005203082935
0.16512463099852415
0.15936300163305864
0.14460688511074288
0.14231466028537287
0.14059032934414772
0.12178751605807862
0.13792968045869478
0.12492011267942962
0.16016785674406786
0.17422045917078638
0.22686420153846595
0.2430761301047834
0.311541248478876
0.33163526680622135
0.4006035251377975
0.397797684454681
0.4437432953457258
0.42352474298146425
0.4552586863674962
0.4278755487568976
0.45041829328516725
0.42196066125167686
0.4445732884789601
0.4314918177842893
0.44609238396628986
0.43472797227398086
0.44585126013344745
0.44025631060466963
0.44327992610950384
0.44297657896826265
0.4457070770211392
0.4732096788960917
0.5162063233919909
0.5777234825843435
0.6869927608647455
0.9007313277255221
1.0
1.0
1.0
1.0
1.0
1.0
1.0
1.0
1.0
1.0
0.7752786754421053
0.4994497522758353
0.37982789536610445
0.3220064230103563
0.2404056784285331
0.2151778403502349
0.1685961658296365
0.16424528003439884
0.15226456731529545
0.1307691299449695
0.11545881803181564
0.09028898747896097
0.07603889477804211
0.057226570974670474
0.039918885829230796
0.008049773152774619
0.008074279195789647
0.0
0.01734653123485854
0.019686712829154907
0.06407938776579494
0.10012789789103635
0.15887318565932426
0.20880313443354065
0.2783009183656313
0.31409218748982204
0.3535524712609807
0.37333958697755076
0.39033076216135704
0.39211279421246886
0.4039888345710535
0.40176056740491256
0.40651175108955717
0.4165692304881031
0.4077290191686006
0.4282323370785831
0.4150494224619582
0.4319603322894647
0.4275946005994776
0.4448342535841385
0.4322143842474075
0.4486049447389838
0.4406473934337839
0.4492447631167803
0.44694122278791965
0.46041675247873715
0.4569255585571989
0.47100420187717973
0.4617408694390687
0.4710579409357324
0.4424267403152446
0.4718732751797966
0.45654517407314055
0.480450111839082
0.46490778628110263
0.48926936394441006
0.4654482516392157
0.4870094856343421
0.46194682425621475
0.4775987348748597
0.46466245751868895
0.4831398769554567
0.46759003699569873
0.4830817722837927
0.473270992271125
0.47297212640777725
0.48010199994099134
0.4818101964585811
0.4922917070262973
0.48407179499897285
0.4954490340270975
0.47881681794961395
0.5016171416937547
0.48686605259922233
0.5004053571175432
0.4805762042827683
0.500611741809502
0.4842871161469577
0.5077438086799273
0.47867367353154966
0.5023651250747301
0.48529230134254525
0.5083569146454299
0.4911392173945807
0.5046478380362581
0.5089223539030756
0.536255614851227
0.5519160001567108
0.5780434634505676
0.6110937575533161
0.6130069477432428
0.6041898738800872
0.5706413496318056
0.5681621218400423
0.5327543783232321
0.5338944906739661
0.5107588503569158
0.5271461135060137
0.5148712234658825
0.5303162351585551
0.51222505852703
0.528746707860239
0.5076467675027778
0.5120872269627019
0.6937612414080201
1.0
1.0
1.0
0.6754629879544823
0.5281116065892213
0.5106499808188316
0.5257590562545977
0.5063094181805825
0.5040530547841976
0.48200594559965204
0.49707052238864796
0.4955877942718449
0.5009014201227777
0.5038746160665887
0.5009157073112182
0.5273808355868587
0.5163812525499899
0.5366992868015341
0.53832324733889
0.5658997359510052
0.569322442738164
0.5921775648438334
0.5983553654479369
0.6323349002058862
0.6367294944769009
0.6788439878037686
0.6826699315976488
0.7284344976168051
0.7384485611992571
0.7669508037262553
0.7683488856819108
0.7825091679448836
0.8004866935979266
0.8016064185124595
0.7929197831652746
0.7744059477315239
0.7607230708700052
0.7011645233301376
0.6782961774663059
0.6396799704232334
0.6211368019263982
0.604512184901986
0.607627935392753
0.5945741970830533
0.6015262370790062
0.5843947297340144
0.5993544975185298
0.5934264850509333
0.598147830951579
0.583609621739693
0.5987373092926239
0.5869888098485021
0.6023796519222258
0.5921836008419904
0.6065491434303499
0.6008697247731625
0.6220859301137502
0.6297509749982407
0.6600509111974453
0.6815378663184319
0.6920938261059485
0.704149845129834
0.7437470696020982
0.811921096615402
0.9199795222918148
1.0
1.0
1.0
1.0
1.0
1.0
1.0
1.0
1.0
1.0
1.0
1.0
0.8779675929204377
0.575207217497331
0.4319972035811464
0.3765215308088976
0.3517852102462776
0.32390393750354324
0.31404345334619815
0.3029967465814959
0.29529265477767763
0.2786152873296941
0.25739070508463613
0.24131962403633875
0.2267729882668894
0.22009770499613715
0.19495149061213674
0.1950324162097426
0.16553372464211252
0.17234923752429795
0.16175649511510248
0.17000656271223819
0.16910932546149443
0.20314419653706822
0.21303510125781533
0.26526737898913466
0.28844010101812917
0.3570668523563688
0.3958329620273865
0.44736198589642007
0.4702841719109331
0.5094597952701041
0.5153093400375436
0.5236642842962163
0.5234025973834869
0.52388511335871
0.5223527395034087
0.5231528802064142
0.5275470529552123
0.5199733929090525
0.5236435715613601
0.5135066589161632
0.521577496186244
0.507478729808453
0.5319173809266953
0.5167797779250913
0.5334196748916289
0.5212917472788705
0.5403288134263119
0.5298097739606339
0.548985398858478
0.535702151328144
0.5551585698515631
0.5452720552234076
0.5583277516409824
0.5631211706928922
0.6027788977675435
0.6558113162996602
0.7466589893530721
0.8420686748799842
0.9782420334934752
1.0
1.0
1.0
1.0
1.0
1.0
1.0
1.0
1.0
1.0
1.0
1.0
0.7330164755698118
0.4897284932534764
0.4184709121405069
0.36438186594942656
0.3559863412733046
0.3209720824713716
0.3166054738211894
0.29048506650288725
0.28377352056407623
0.26800109772920816
0.2551728501626449
0.2337046801350408
0.2213663548068096
0.21500538300294214
0.2006889321636561
0.19020271187475485
0.1815604155378127
0.1722924836673243
0.16521621422813607
0.18061985730579583
0.17596477424609125
0.21322607373417973
0.2402593266464587
0.29270105450654693
0.3391192922996705
0.3964508897204224
0.42924644920959737
0.48452632696778525
0.4955877587489696
0.5330783087827755
0.5346135637172613
0.548970735150325
0.5366947120868548
0.5445330595187363
0.5348390432577977
0.5423278046050507
0.5325438469398052
0.5400654888125996
0.5443009898176634
0.5415779119901328
0.5493728637466695
0.5470101537616735
0.5536006807342083
0.5506914726318382
0.5667158160287491
0.5578482806476411
0.5711531148475595
0.5546627942986729
0.5706514546947254
0.5529625874538941
0.5762678700816821
0.5583135376436034
0.5767274302970192
0.5619000302448431
0.5786537051680853
0.566483874709849
0.5803803503325257
0.5644806324030893
0.5810049804252062
0.5728419037986241
0.5771898472953352
0.5751469604573769
0.5749236138458937
0.5720792945399547
0.5747200063974656
0.5727878294889239
0.570012547467645
0.5856129773906964
0.5916016787023499
0.611613029495096
0.616982720656903
0.6550762272453585
0.6509298519581976
0.65276441952248
0.6187367506925778
0.6148983135709474
0.5827023987972584
0.5811605848522834
0.5583240670401833
0.5614271671703354
0.5562994433850623
0.5662785872663368
0.5582154533680483
0.5756694841284429
0.5643090283545722
0.573120238846736
0.603952059219119
0.8315969301238137
1.0
1.0
1.0
0.705471228662182
0.5822669235478746
0.544410383305012
0.5670786506280743
0.5383640896397256
0.545761244009668
0.5286971730962571
0.5440114750072109
0.5269663021482066
0.5477338043072771
0.5328039470817798
0.5591628857739287
0.5428781381169345
0.5709407528562325
0.5615063188951941
0.5895513378756336
0.5866168128915799
0.6167975819986318
0.6143125220934139
0.6508901155101912
0.6605600932028086
0.6821572947502269
0.706973002737019
0.7199608908857373
0.7461962863283091
0.7603497772248287
0.7661321239678485
0.7679439666569042
0.7580280391378628
0.7199206934922795
0.6980914954123895
0.6611493839876672
0.6359423759869395
0.5981690243661628
0.5955967807417679
0.5674013302983242
0.5802067511884069
0.5622672104933335
0.5733661129812372
0.5604301303804429
0.56697481889259
0.5618736780682969
0.5663684642423278
0.5600923695583344
0.5727177222308605
0.5697434318129645
0.576446778243373
0.573933231583881
0.5702494965203051
0.5728106488560603
0.569498668155729
0.5682100222500519
0.5863697980755538
0.6013633182461395
0.6125516618682043
0.6429918033680359
0.6332515195436408
0.6337614198838943
0.6184096037614901
0.6323573825643568
0.6477409492450924
0.7149035070567111
0.7780375310103113
0.8839814182900539
0.9528808282677389
1.0
1.0
1.0
1.0
1.0
1.0
1.0
1.0
1.0
1.0
0.8185598640567772
0.5427844333394304
0.42517050771696063
0.393070762719165
0.36249807864834055
0.3546221536196694
0.33397884472023714
0.33490685750292654
0.3161674022622273
0.31131274332961534
0.2918668045604566
0.29294099023575565
0.25967401446835775
0.27015586299315497
0.24303990208116466
0.24994725802878864
0.2202065700042895
0.2264107453495281
0.21479209025102047
0.22353805318139314
0.2224654632265542
0.23368653671648873
0.24840119505710184
0.2738427936846296
0.3017201175095936
0.34486983878756294
0.38587018730821476
0.41749504707329593
0.46519696577738456
0.484606692851269
0.5112194511462798
0.4997873860783371
0.5208099356247147
0.5026792710776344
0.5184736624875094
0.5057696377758119
0.5213692402883281
0.5043033059969162
0.5167609027034448
0.5022369061984701
0.5219677989196007
0.5121093759883995
0.5254403819642322
0.5142114401077389
0.5235527304253743
0.5235081024823514
0.5307020709241095
0.535846598866798
0.5641417206089114
0.6009458380491257
0.6455005855272262
0.7321277539975247
0.8323242325614281
0.931272960906217
1.0
1.0
1.0
1.0
1.0
1.0
1.0
1.0
1.0
1.0
0.867013199265729
0.6356917273285629
0.49032977194621274
0.44118152830288737
0.3857111118952421
0.37422002174821956
0.34299789347600473
0.33714674996112315
0.3142471800137204
0.31504940251296454
0.29366424638332694
0.2802056262972561
0.26577357078416874
0.25052493322455527
0.24340202606995587
0.2235107943780262
0.21519332232518487
0.20775653110783338
0.2176403344105468
0.21554549349781899
0.23796294924000344
0.251580252263614
0.2888589190364251
0.31122960674636174
0.3549820378934985
0.3820702959054764
0.4295702686272557
0.44114633636233325
0.47841427941223136
0.4854818219244347
0.4936727684778385
0.4884775830795497
0.5009831729743338
0.4945294742435247
0.4996599094284487
0.49575477965641956
0.49966907922174597
0.4984236847928507
0.5065710732575961
0.506884144229787
0.5098049250985623
0.5207201455527575
0.5115446781047571
0.523919904041777
0.5176855576580155
0.531883674441878
0.5230577888418435
0.5400959604016746
0.5272950607386571
0.5399165740273435
0.5238144297818268
0.537051845903923
0.5297805340301588
0.5425574466127296
0.527547836618237
0.5434344199443781
0.5320164449754856
0.5346606319140793
0.5285799304376196
0.5387699336197586
0.5323707633461424
0.5387470219990759
0.5370744617101216
0.5370976211829228
0.5360727263931703
0.5304985474021165
0.5373706218852019
0.5370615483140733
0.5458232666625557
0.5411098981124305
0.5461363085310478
0.5333667759454761
0.5519644852396945
0.5344689201962937
0.5463508873460748
0.5382636046075803
0.5501543801081847
0.5379657668060194
0.547311638191178
0.5344897434212236
0.5530039805982093
0.5462459106940972
0.5652232457554149
0.5670833612932968
0.5946326348609248
0.6045165804243124
0.6241798356255248
0.6157923268888661
0.6049770546870232
0.5869431187998021
0.5607089181112211
0.5476704186816617
0.5328887980291679
0.5333984224895196
0.53123191619655
0.5438312986432782
0.5334743935798104
0.5397319074932159
0.5094869729311904
0.6358625286481057
0.908310852042937
1.0
1.0
0.6642982145061159
0.499700048498598
0.5350710178096849
0.5174259201411388
0.5169940809489122
0.5084952186727147
0.515142088578444
0.5162476376340877
0.5141421479038305
0.5174942626097011
0.5160561902866962
0.5204839955909248
0.518231155294612
0.5325856972203699
0.5310192118065322
0.5444262152346632
0.5499100193959221
0.571668950649952
0.5718007052581853
0.5966360161628891
0.6038824941201366
0.6319474043764673
0.634257632786602
0.66490609548147
0.6591008298567406
0.6851079569528375
0.6922643756535123
0.7041484253612658
0.6989159522868901
0.6881195469136469
0.6638285081509798
0.6356960139898564
0.614950384325974
0.586317512954873
0.565235668105671
0.5392893586716071
0.5382166836037948
0.5243477380986798
0.5209749714847126
0.5140777539351828
0.5302851500758912
0.514135684242081
0.5295020376283357
0.5204619846443987
0.530165362858379
0.5135957589357596
0.5301349689510857
0.5192667854556458
0.5304636120179038
0.5298013483545005
0.5594371958936903
0.5649687775823795
0.6013148825554273
0.5948359063923576
0.5937015689408358
0.5891807896408467
0.6082234456244745
0.6381464182560042
0.6999686950430154
0.8012725453802461
0.8853236739564141
0.9962839014252367
1.0
1.0
1.0
1.0
1.0
1.0
1.0
1.0
0.9920820454309183
0.8849777112854582
0.6162465401120378
0.4208703326410335
0.34599989295927214
0.3297705949768191
0.2970408364575803
0.29662239832750636
0.27443258782708035
0.26886130331473035
0.2506321132988595
0.23370052186921475
0.21674169718575959
0.20457880768450742
0.19034128963918176
0.1782316574328929
0.1643741968964955
0.14992522417133847
0.14446017020746305
0.14082927684577876
0.15298343717643684
0.1569592623092429
0.18296978217748855
0.19564977680004705
0.24406400529120656
0.27265619985284867
0.32398873622804814
0.3538696840781497
0.3984291452836136
0.412577173237026
0.44349216482622256
0.4391710796558087
0.45432380877413214
0.4424526027843266
0.4509863293021475
0.4478910381724976
0.4474952727345479
0.4508970105195762
0.44643586927224393
0.4490526635034334
0.4449925211545686
0.45759014781566076
0.4476393164742355
0.4669937815196582
0.4626069967167533
0.479389776170519
0.4749598077820785
0.4879520639092787
0.4758336570398895
0.5048286437368713
0.5269427635552385
0.5893170968060784
0.6376036904136129
0.7638109255019168
0.8602127101168474
0.9835490500748552
1.0
1.0
1.0
1.0
1.0
1.0
1.0
1.0
0.9745624704177095
0.7775621215406059
0.526425785508428
0.3809332841929166
0.3565960559436795
0.3139788131156543
0.3021970852154645
0.27772477018676234
0.27820928748575857
0.25020596089124664
0.2527033288250025
0.2160133032175851
0.2159066844857723
0.1819237229522052
0.1833204089172386
0.15389089569786257
0.1593515655988385
0.1421468976640663
0.17032651343828958
0.1815640328021227
0.2305667762044314
0.2735296799793839
0.3268604577802829
0.3730050419870995
0.41696253008597683
0.4460382228750417
0.46503164453058676
0.47031682238247247
0.4689260812196322
0.48257796652745866
0.4718870173202666
0.4831176050839088
0.47259861859292707
0.4774637724049987
0.471958348948556
0.48792124570444323
0.48098650676477855
0.5002538362888644
0.48534221104220654
0.5059542404613054
0.49431659496677033
0.514720908518831
0.5008781190080793
0.5168826124241424
0.504619145193453
0.5153919091232468
0.5077486928218307
0.516540144287109
0.5144616181521637
0.5173448916412227
0.5162687606742654
0.5183033410087913
0.5223292450162462
0.5221309238008651
0.5246392350358768
0.5175031609491163
0.5241505363254884
0.5178859321280315
0.5295385685197455
0.5206585942226932
0.5259316096414463
0.5194453977298721
0.5266968142967907
0.5189006312533133
0.5352707914213799
0.5191530668348433
0.5344941483382984
0.5364579233419271
0.5600677691731784
0.5713551165865666
0.6018273934597282
0.5996881322789213
0.5974344589130051
0.5699486715076627
0.56017630568359
0.5414937596046674
0.5267145882864737
0.5194626565950584
0.5167903304614183
0.5197908408112076
0.5214198459277566
0.5254973211364773
0.5195285383111907
0.5254153526201194
0.5150995965964085
0.662568420258335
0.898310798046723
1.0
1.0
0.785542365193862
0.5666023783763116
0.5152214179947607
0.5150409612685688
0.5213425782255489
0.49664493565630563
0.5048662409456594
0.48996429347185444
0.5031496104863326
0.49591945606727983
0.5067403494146397
0.504517991974433
0.5079887490218079
0.5151408450758109
0.5223440186875112
0.5348745669152606
0.5274443997549302
0.5465938619419342
0.544878167573152
0.5741461990083719
0.5628253038837965
0.6017419771583361
0.5930930650754516
0.6354140007760414
0.6348292990389045
0.6738975386372805
0.6741739570499107
0.7020077110716737
0.6984688030855911
0.7219647087272703
0.7149625921869925
0.7123007942945434
0.6804152957856084
0.6558636040661684
0.6319671718075792
0.5995718256541913
0.5841152294462153
0.5597296442965268
0.5556703358735129
0.519952940011527
0.5303893569915549
0.5196728247749206
0.5305850235212599
0.5156714831225118
0.5275376786743755
0.5189158748559776
0.5282490301636708
0.5262328864773085
0.5395450217506513
0.5188144552285476
0.5272032214270324
0.5304411833186513
0.53270089053357
0.5257937221908116
0.5284651043983516
0.5263918165884532
0.5510752549395803
0.5543576356376649
0.5773972685183287
0.5879105385408963
0.6031203541907795
0.5893737064004847
0.5901822678826518
0.594717909116355
0.6082961055504393
0.6544234305845471
0.7165134846702627
0.8248715633711022
0.8948129866432183
0.9966587856786056
1.0
1.0
1.0
1.0
1.0
1.0
1.0
1.0
1.0
1.0
0.8217970205538849
0.5583053813233676
0.4027523212409888
0.3680768829012175
0.3406153611238206
0.3103370720676322
0.30778592881355693
0.2946652383450502
0.28083483911176305
0.2764703240170318
0.27227969682102404
0.2585421321336363
0.2555861863511327
0.2364917988511483
0.2262524535895282
0.20070712497420118
0.21070014377605947
0.18316441718711304
0.19265980123728296
0.17011580665934706
0.1942405629958691
0.18538025045931533
0.21105020819597847
0.21846748911969116
0.24589563412364238
0.2710453748085787
0.3048709836627725
0.34477177546091503
0.37997507001840214
0.42004845541193114
0.45250049621767197
0.4709971220293803
0.47650416548156
0.4880997298763735
0.4839488890270016
0.4911930095418609
0.4826469633066782
0.49605852233701436
0.4928383987049923
0.4978249597028686
0.4994597329153131
0.49725257780214377
0.4941600749991803
0.5028562017225029
0.4937020388809499
0.5043538551448798
0.49548792306743134
0.5039254550935443
0.4961111676837053
0.5179415819628355
0.5299331554012423
0.5772393097477644
0.6241948744071182
0.699844416092515
0.8006186790950555
0.9063438987129772
1.0
1.0
1.0
1.0
1.0
1.0
1.0
1.0
1.0
0.9908619847311121
0.840349266090973
0.5917762340342196
0.44936048005103907
0.3831566304289008
0.3652114142740179
0.3423173089699859
0.33534148217634296
0.31470655035256645
0.31199580189575454
0.2945549630469922
0.291647853498629
0.2728262010101721
0.2743009045520809
0.2508002368402737
0.2407030218175858
0.22678544560795727
0.21908087411234592
0.21025698541085663
0.20670600571185888
0.20541435878902084
0.20782517966090422
0.22330064421228638
0.2390458787206997
0.26429150816907154
0.28997160541889283
0.33720173242470153
0.3674191256463408
0.4213591161273761
0.4358190416058802
0.47164709421282536
0.47144219647863206
0.49178967782401184
0.48156621496123336
0.4946496901318331
0.484817895813119
0.4930109650012895
0.4786796580069034
0.4983864654822823
0.47712538331763865
0.4940186116979518
0.49685319649329945
0.49531397820938733
0.4993842266431188
0.5003356527309099
0.5068255044962584
0.5086844168985322
0.5154899503443133
0.5075916106678784
0.5243989395743671
0.508011664916231
0.5282172941434744
0.5141688633841478
0.5333485394344413
0.5133902954789977
0.5331717390975924
0.5206817639368247
0.5358578123235997
0.5120693035730117
0.5307125311204948
0.519172168930903
0.526454673059922
0.5250070377210609
0.5282605566708816
0.5305314502453604
0.5271877869715283
0.529804198249174
0.5281305934963886
0.538977836001071
0.5324864680227532
0.5469032758576853
0.5538176535182996
0.5754454326901781
0.5839303951530488
0.610698058712291
0.6084366676099503
0.6057871837573194
0.5867011312828497
0.5732429582739637
0.5460834436741671
0.5482581839782085
0.5245176963185088
0.5287226629195307
0.5214642974383976
0.5299990879733707
0.5269461284938395
0.5287441253614237
0.5211017925331561
0.5271761070764767
0.6808437918197252
0.9639722337269309
1.0
1.0
0.691884437308635
0.5161843740123643
0.5163758005850766
0.5153986705379023
0.5190355667445019
0.5080047319663281
0.5066308179699411
0.5000435623865601
0.5103595967218055
0.5047837023307636
0.5087060009818289
0.5060705688166253
0.519060882918805
0.5160239168941724
0.5264077537783699
0.5269970103529285
0.5482417203030415
0.5471778861927107
0.5607495925909578
0.5751013644818374
0.5865956365337806
0.5997945646387836
0.61485908894548
0.6360658281581184
0.6536133259684979
0.6697105227644053
0.6753367752065087
0.6884590269422894
0.690288665616264
0.6886220105684007
0.6794298277479689
0.6655476782251115
0.6347297434439978
0.6170321026176906
0.5835766613677802
0.5673490474276751
0.5384979350323276
0.5322363586294675
0.5181504317200549
0.5237616094575455
0.5115701693481499
0.5224225016324994
0.5193551891701083
0.5229386550918907
0.52135430039778
0.5243559981532763
0.5250101792948754
0.5160326826855905
0.5256581104610255
0.5200880233666427
0.5300122495930971
0.5190175075300333
0.539425481872885
0.5424209396430988
0.5674598473390347
0.575202599651069
0.5973831095932268
0.5714723283102358
0.5742492270962958
0.5313803118655969
0.5239482044400334
0.5181755617520623
0.5674100315279001
0.6145990686081536
0.7127718752535521
0.7917995440315645
0.8832569923012314
0.954501891577656
1.0
1.0
1.0
1.0
1.0
1.0
0.7253504901589183
0.4982253499444321
0.4190119574167393
0.39121344033494454
0.3606516045729663
0.348169845343193
0.3395760680052611
0.33884804469660784
0.3316828981076879
0.3338051334524019
0.3191267695463272
0.32360711747715365
0.3050618352778816
0.3050335282007687
0.2890348653156789
0.2857897318032729
0.27114627459461793
0.27411156791899755
0.26204347909885917
0.2708304851199348
0.26931590374198383
0.27652755088335385
0.288902233768423
0.3136295020660412
0.3319902605433271
0.364010607911139
0.3928391570006721
0.42124015227658596
0.43935176106976287
0.45762949759752003
0.46972740940404706
0.47538261734029
0.4707404366853923
0.4661572876847092
0.4695216679140243
0.4633279202052732
0.4719661623604664
0.46830455772151164
0.4811469568588766
0.46693833792222533
0.47902652285794745
0.4694935052979156
0.47601301558604214
0.46271303887276655
0.47932463589144636
0.47066181298077003
0.4804953476037853
0.4968383065601434
0.5233861082337734
0.5600928141166984
0.6233042307319255
0.7181815790103719
0.798483677773039
0.8965034124889438
0.9526484531893814
1.0
1.0
1.0
1.0
1.0
0.9727369226059828
0.9772603861127624
0.9552549086971951
0.8258414161576733
0.582568815631902
0.42075491518797115
0.36479581393921706
0.3440094228834073
0.3154625405252635
0.30867895184398
0.285985098837951
0.28752883184802114
0.2698307565228618
0.2575098323954344
0.24410992410988808
0.22968908261401494
0.20832200916736246
0.20230868393265214
0.1869569018046186
0.16894450526223065
0.16981502607104587
0.1629582898112562
0.17619365760335795
0.1745725745818984
0.2071063191061988
0.22085171470435752
0.26303016485351
0.29189181705924744
0.34149651857960733
0.36226501352489954
0.40191332276553104
0.41568916672625383
0.4415257221857076
0.43893659494344595
0.4548130961454858
0.4431470707379167
0.4452442919740873
0.4506836147849219
0.45239088953192946
0.44800061874094926
0.4556533058158186
0.45514731408055065
0.4577533394162754
0.4664213838287073
0.46008017724410744
0.46642577700781523
0.4640387893619698
0.47578231548748284
0.46950265144480435
0.4772119539737333
0.4679706543242432
0.4784227812671552
0.47033841805677684
0.47639727873445636
0.46498826691276784
0.4843669106089866
0.4687781908979858
0.48098726625596644
0.4726566391181681
0.4847373954897254
0.4745492213570997
0.4882221935855842
0.47774489343947923
0.484954132181569
0.48168672061803797
0.4829436287359085
0.47973439567162107
0.48258023030831254
0.48466435698983173
0.48264850372722445
0.4885587738720753
0.48224870777816947
0.48800751764594796
0.4832130045596606
0.4936744019124134
0.4782502333004879
0.49796685966542603
0.47868461042490634
0.4979728915377876
0.48780837954121603
0.5086065170810512
0.507082884747224
0.5276881343667819
0.5362693467245168
0.572050992799598
0.5526300755288828
0.5523829633922267
0.5264946537236713
0.503111630316482
0.4846589074074175
0.4889956644662588
0.48805351493360416
0.4875955801807101
0.49055145510696585
0.4833735844758051
0.4892294876624616
0.4868466119213358
0.4950938131805397
0.6279948756608563
0.9184715072564968
1.0
1.0
0.5545571459233124
0.4838838270770762
0.47031295133665313
0.4832722522399995
0.45696537950474586
0.47425968693175624
0.4545938018175729
0.4723021601933663
0.4652575382976347
0.46982869227333274
0.47392295131296674
0.4809033167283145
0.476414597177643
0.48814006617580363
0.5004241262404258
0.5135524572442226
0.5213388155167323
0.5346457416836815
0.5494103344288903
0.5553788493235527
0.578888280523365
0.5874636429392344
0.6099566343757494
0.6111822449774239
0.6412797144268833
0.6413271610455007
0.6680688260834461
0.6520259849776959
0.6525979299524234
0.6083180760307891
0.6096505523784788
0.5775047631991819
0.559971280404422
0.5318363527553014
0.5184053633862911
0.5036699891067388
0.49970700242830146
0.4970404801133655
0.49804475825121114
0.5036355541782038
0.5019641922556601
0.5056861285758565
0.501997244910432
0.5084961871416068
0.49902188197840525
0.5113903441877702
0.4990672484035657
0.5190610952664315
0.5169934165623485
0.5409134363511183
0.5442748681131292
0.5858067105545135
0.5706250854555127
0.573290839309494
0.5442624830517897
0.5407167798095981
0.5006310324803322
0.5441585108157848
0.5837369589712862
0.6644910276000557
0.7634154848648901
0.8494922259389452
0.9383919879963722
1.0
1.0
1.0
1.0
1.0
1.0
1.0
0.9269708133451907
0.6001687727723788
0.4630171974972468
0.38564871216400015
0.3607413307232915
0.33667925591217174
0.33335623785325985
0.3097703933856068
0.32244246816324934
0.2977411510242543
0.30898267805207386
0.2877256836527413
0.28907473437628817
0.2629244683855434
0.2688489861085853
0.25130482206645743
0.24352341949498463
0.23649214636693078
0.23009149194776932
0.223285756605327
0.22540225063563338
0.23070135068589853
0.24338790506093724
0.2656863940381974
0.2837899056205935
0.3291901584637414
0.3445424961282558
0.3926505225044876
0.4176320758547366
0.4529165166424539
0.4584114550815201
0.4782852906229168
0.46697963626277617
0.48178363889175346
0.47290530212341475
0.4911638951700198
0.4820837264380765
0.49428653372441617
0.4845495798991212
0.495125799720815
0.4860952592388822
0.49404142119116673
0.496274145218512
0.5081332691274175
0.505500135182799
0.5104530012744851
0.5148194153012314
0.5171593389322945
0.5244862240578118
0.5264970931473992
0.5344919065541966
0.5560854918963851
0.5999809810891795
0.6592534994526505
0.7416079147851253
0.827116026123106
0.924657150795057
0.9881305229004169
1.0
1.0
1.0
1.0
1.0
1.0
1.0
1.0
1.0
0.8950691067075882
0.6875842339022311
0.4886011359837942
0.39628853678685394
0.37433040116267974
0.3412303299151443
0.3260389294561373
0.30584674894877706
0.30194490327655243
0.26958156821150325
0.2750152123256843
0.24445495983824245
0.24561537156251406
0.21833034777811822
0.21644952165116288
0.19122472250263128
0.19568757855620356
0.17813712008048582
0.1842891244401879
0.17453642999922286
0.18698745215198728
0.20246277767692886
0.23309145952095686
0.26232503114895084
0.3156103988008282
0.3541075180059982
0.39757857700868404
0.44079553722067155
0.4708998533395503
0.4983743174164326
0.5072996324977952
0.5144678732701273
0.5066766530126346
0.5157376192519083
0.5052137672652106
0.5186661471358767
0.5041414510367359
0.5122970684785277
0.5000154219611226
0.5206954255053502
0.5093327927696017
0.528106060897597
0.5201631397867741
0.5347400195123047
0.528351551430651
0.5491765230175728
0.5294617099192858
0.5442646834233626
0.5402869274138073
0.5445088018230071
0.5462411069802553
0.5469634245099934
0.5436699783166206
0.5398191320799788
0.5399482122178358
0.5361599927731903
0.5514366807622599
0.5406417534646129
0.5543544818795837
0.5421622101894212
0.5584963717305138
0.5488082121382856
0.5717725031154226
0.5726574611449037
0.6024600942031839
0.618547589202427
0.6376989184867305
0.6028071714783136
0.5959713094873313
0.5570830625318106
0.5628944744621178
0.5431594283691238
0.56030010391266
0.5503127402515161
0.5633545693326174
0.551336456057446
0.554348591602
0.5394632247553482
0.6701430894658988
0.92414824215343
1.0
1.0
0.7339678362773417
0.589288486587022
0.527028431285749
0.5509482551015054
0.5219145873198648
0.5214581008577778
0.5052215033136602
0.5213571197675729
0.5081684376057071
0.5234202926954686
0.5081679265890593
0.5274104607392123
0.5204189309889798
0.5326853370188221
0.532838056926958
0.547921056210894
0.5509952277043261
0.5760577263243858
0.5827185437914012
0.6037584221922424
0.6225845297686864
0.644988380768903
0.6712101047987065
0.6795104762896393
0.6954706371501657
0.7099171329254927
0.7206561578812353
0.720105953133498
0.7178700395701828
0.6803636849596324
0.6613080561597678
0.6152027469846422
0.604482386541347
0.5616318724528211
0.5566803810696858
0.5291139380902526
0.5280845460179784
0.49640024885872436
0.5171744812900458
0.5184751947165875
0.5290961871279442
0.5196678612816311
0.5267318271770403
0.5215507446006
0.5230052920995913
0.5152113204258135
0.5184034761593592
0.5238420352049182
0.5200585521690366
0.5234990576397389
0.5166847983499242
0.5147064176918876
0.5086644955565728
0.5249969428876569
0.53130254361154
0.5535924232359373
0.565264115207338
0.5853630527099312
0.5740822158000646
0.5723154982261931
0.5366275183842872
0.5212523850484498
0.5090445400071373
0.5485817276845858
0.6021943811917643
0.7034047758520849
0.7790737543183919
0.8683254519361986
0.9513369099460671
1.0
1.0
1.0
1.0
1.0
1.0
1.0
0.9851724416742371
0.6230402604695957
0.4631276839302513
0.4023395394633346
0.3879288367421333
0.35637081041592744
0.35092349761905034
0.3314808591701227
0.3399206948895408
0.31368282690287624
0.32536841694969854
0.30285901510568236
0.30289542625247406
0.2776154033303537
0.2805156007391885
0.26259235969490097
0.2594003442810737
0.25185353137892524
0.24409326295836048
0.2527514229347268
0.24926456385398757
0.25770986711069865
0.2665862554053702
0.28365791035057464
0.29620184742604133
0.3279184784041448
0.34453300076726673
0.3885471073261686
0.39592043935496796
0.43684061333063634
0.4432034507278013
0.47264037122820124
0.4716375606681683
0.4813073361309731
0.47113484150150475
0.4838771808633796
0.4709392293093925
0.48582799200384547
0.47881558160228127
0.49030405934900106
0.48494371040983786
0.49082818046926696
0.49092732301536435
0.5101983179371051
0.5457202298993038
0.5861110485587516
0.6803967384706963
0.7751023598842033
0.8887192529219231
0.9978956006019978
1.0
1.0
1.0
1.0
1.0
1.0
1.0
1.0
0.9440740493371138
0.7358677807021555
0.5566839495017772
0.4579567960284989
0.4279811237193999
0.37170326884145466
0.3435562424329222
0.3125935061138019
0.3000144710269965
0.28688604358165964
0.27895234370916483
0.26546606586377647
0.2508137039356036
0.24173170722166507
0.2227879755164543
0.22610983654937272
0.214383477816656
0.21014561007066157
0.19473564336823915
0.20379536959704941
0.20093569697167696
0.22434421661330553
0.2283568222305871
0.27213077560786625
0.28722261439974084
0.3228367452212961
0.34447564986456547
0.39627673659005963
0.4117286951478346
0.4424969436441496
0.44157023477494883
0.4577823838462375
0.4546839823095614
0.4611156275336425
0.4585986387891956
0.46326555836862626
0.46190924859174054
0.4692944964800905
0.4709258971779082
0.46307005694556913
0.47758604553100137
0.4764964337580186
0.48318377349290004
0.4742351982106926
0.4870089333960529
0.4823043589371867
0.4931735106181415
0.4874868176077697
0.5000876127278906
0.4888147161442048
0.506561364595015
0.4919360193738509
0.5001497579956969
0.4920880255053081
0.4963957031432854
0.4922513292524058
0.498588648947369
0.4986020510979694
0.5000336861016252
0.4987643117523408
0.5045394252741293
0.49715726366361845
0.504610475548765
0.49908251014491284
0.5023537892202552
0.5089156813954775
0.5074958357436048
0.5127446895334697
0.5022582499769168
0.5133641911469418
0.5031407604551302
0.5061500492065385
0.49988666903364354
0.5169590021786936
0.5041107114641605
0.5211814402277601
0.5032729696820751
0.5254790963234364
0.5125145505528796
0.5240433046739319
0.5073806631363096
0.5224074378798343
0.5118326123900259
0.5088512870963079
0.5068818759694185
0.5134544494553175
0.5098906404986128
0.5138889330987052
0.5289056918717928
0.5306506075854807
0.5489646908391965
0.5700090194699731
0.5844763378157596
0.5742716314760141
0.5701532652766652
0.544309109535676
0.5347572184427396
0.5124005055718628
0.5095714022821853
0.4984752140503937
0.5130465915356308
0.4991706481919628
0.5072572368930682
0.501252661215091
0.5034567532777181
0.5127163908705722
0.7095523542389637
1.0
1.0
1.0
0.75265942028315
0.49461843076163214
0.4796254840386222
0.4716427574254317
0.4727805057571435
0.4538893351922111
0.4369393307104665
0.4424917551089657
0.43046050866752983
0.44407050464928066
0.44576547057358473
0.45245313962765127
0.4380042869858256
0.4533994514146344
0.4437464843534049
0.4623911087577131
0.45579314563075746
0.4771999606118231
0.46830367445915505
0.4916051989243619
0.4974150758837205
0.5275090730186667
0.5295663440002221
0.5558265940553487
0.5681427098279268
0.5890831627673607
0.5996964130860445
0.6126385492560413
0.6232302749227265
0.6313586955316646
0.6441629708268813
0.6424196638399274
0.6444971781163489
0.6107921263284034
0.5968928279656158
0.5545388537040706
0.5395850589883613
0.4887107383131082
0.4906701140734227
0.4598651859197232
0.4727718009430806
0.44797695303330964
0.4503171588774618
0.4451926774056191
0.4583021000319885
0.44015022787868546
0.454027844086718
0.44476060001793927
0.4561207425784567
0.44184754519753816
0.4546208707427543
0.44716066599748394
0.45231433413310074
0.45064458575804733
0.45369874621775635
0.45428624448255783
0.45220076716876134
0.4622141368317685
0.4766765946428599
0.4894758795144418
0.5213751733849031
0.5672603556305809
0.6019269942700325
0.6671118605556192
0.726418942072258
0.8456082528430177
0.9048506337777471
1.0
1.0
1.0
1.0
1.0
1.0
1.0
1.0
0.9892136089283184
0.948611734460167
0.919389304967084
0.7836651493020347
0.5220943524639431
0.3177426236900772
0.239400534450734
0.220918646258426
0.18449025749565479
0.17572490730246043
0.15377478961015617
0.1523072031668257
0.1324292390794155
0.1341133523596786
0.10499362409064039
0.10621639813477643
0.07924554186694088
0.07627001373490616
0.058050118680388965
0.05915657470887874
0.03461040032017806
0.03732162709921712
0.019046256060572198
0.03164881409588079
0.038415901642205874
0.05392261767390485
0.07793258512749138
0.12420154609835188
0.15591739607428265
0.2003576356067663
0.2421974332812749
0.2911037016285167
0.3157246157580527
0.3249268434834692
0.34620672294959887
0.3353216260504005
0.3451899900942168
0.33737260174837924
0.3458909899122996
0.34372583017072306
0.3415288006828545
0.32317485393294376
0.33087544014828396
0.30732105378046964
0.3162063860098684
0.3238469549005542
0.3754219916641649
0.3965486829522563
0.40803832699882525
0.4278569783246694
0.4485029105119359
0.4394725048597066
0.45110894106490146
0.4684894364373632
0.45376290627891536
0.4817133305988481
0.49925550516026884
0.5207619755465532
0.5494092730894707
0.63105764088771
0.7347793124606231
0.8535461092059577
0.9556239205366186
1.0
1.0
1.0
1.0
1.0
1.0
1.0
0.9739420338686688
0.9717626765159781
0.7762175287285038
0.48711305847804487
0.282194319244365
0.23176278350615637
0.2074315953754035
0.17709624598299256
0.14766974526114093
0.14668494625547704
0.1454341691392386
0.13393134657930172
0.134938328617132
0.11313052673615251
0.10704784858462593
0.08956236839141721
0.0713974516638344
0.050628355505274225
0.05971071989228109
0.03720782968652499
0.05456631830770133
0.046016156239458005
0.08437293835190332
0.09360017201139419
0.1311349545083403
0.17047365574306164
0.2362793112422395
0.2742050414828906
0.33186063569723295
0.35741648569287265
0.37968279252807474
0.3979310116862778
0.40583560603809027
0.39724206053506456
0.392251961297274
0.36859717567523614
0.3585551929681018
0.3622430653353409
0.3444176920625211
0.3532676580842075
0.3420202979596216
0.34279075506396045
0.32477733731049
0.3409574446355375
0.3362318484547118
0.3515255481949263
0.3465990435088221
0.36143910358933795
0.34299659516201847
0.36617612616510764
0.35880603265416056
0.3623529838932534
0.358928152304555
0.3664834245510389
0.35662456113902774
0.3741041210230608
0.37644155845336014
0.38238920241450913
0.39117580483796444
0.4104221323700995
0.3996145098975471
0.3999310523930231
0.40132597067258374
0.3909774290019392
0.41184181349649335
0.40376526456759815
0.4038867631560749
0.4134641353392666
0.4286364769831842
0.4283736942765227
0.46284692771838837
0.46109001398647315
0.5066089444757338
0.5069330802889616
0.5133577226968822
0.4971262509408055
0.49210975959560405
0.4530324581211264
0.4471029583975537
0.4331552820178931
0.42756507373576974
0.42886035319114946
0.42725102861379305
0.43812442223447173
0.42276994331968004
0.4351130279358418
0.43485894663207
0.5539019385599415
0.7909300586115725
1.0
1.0
0.6688606828178489
0.4460055540295483
0.4764140635501047
0.47389740562811833
0.4734261493219263
0.42608048667541737
0.44275706121726344
0.41570281364362244
0.45558845329875364
0.47179932857043133
0.46806260126540966
0.4369677237749647
0.4594030397630515
0.39683386165185447
0.38680566817576584
0.42665390132105213
0.4198849009492543
0.4087406579911363
0.4465815073345068
0.48341865260414557
0.4868162158220315
0.5222484419555616
0.5248055211139336
0.5488834623541171
0.5780060712730554
0.5798940889959481
0.6123824435331371
0.643079585854615
0.5651504110816848
0.5857542283724252
0.5631399362073858
0.5570839738490072
0.5105114186461497
0.5011019460786937
0.5174514322369207
0.5380903429373449
0.43788236014354653
0.3866143509308618
0.3845089696706149
0.4177322109488088
0.43164356650537494
0.4482421177166452
0.42896455993869526
0.4260783117592532
0.4284087366964197
0.43712416748179805
0.4455758992685713
0.47259211297908665
0.49140753551094846
0.4949295725396231
0.5203288048302049
0.5181588323736658
0.5387873674053247
0.5060859944877711
0.46520611239052745
0.3954723602266871
0.42115678047689953
0.40338748500356625
0.4212450838554405
0.3979267379876221
0.4023541008562609
0.40621480520590636
0.4445388439918488
0.4988470077196925
0.628196922084052
0.9019775955775792
1.0
1.0
1.0
0.592088027473315
0.4644487120634494
0.4127355030736755
0.4015548672129195
0.4657886141910579
0.4538382082365451
0.2996591785998024
0.33916957967134487
0.3638305573792281
0.3486293691833284
0.36218088624876826
0.3842822103124911
0.35847833627611525
0.34770923523831543
0.35030644537609545
0.38003281895712304
0.39351339792225853
0.37969176188008624
0.40576894373505024
0.39607945828205865
0.37061316842461556
0.4116194218096797
0.4364566614269262
0.43642553356906416
0.45606268670699424
0.4796501363711331
0.476438812493332
0.5006748423274672
0.5165649551813049
0.49652807501026136
0.5422608510465505
0.5719779394917393
0.5457224847310179
0.5068074998506532
0.48086734535637116
0.3278517491165038
0.36289942761957616
0.41350921011245356
0.49902651483490057
0.48327699300602306
0.41929504995160405
0.44699078114043084
0.36130360965317754
0.47896250925449724
0.418741747360692
0.5022152745107332
0.4921836804654343
0.5108230105605939
0.5674180056704825
0.6241857109373221
0.8264787926218498
0.8440890927091533
0.9141073350051088
1.0
1.0
1.0
1.0
1.0
1.0
1.0
0.9657182702102709
0.9764281103039142
0.8805746769453442
0.6258227982805027
0.5027086126030051
0.559964811512937
0.4563157143050717
0.4929445612336602
0.4818638122873856
0.36520185374513153
0.48813627595533327
0.5184131279347308
0.4020366513095664
0.3591202902593529
0.4794924083483412
0.3764173360224044
0.3879863891628047
0.4017108833984121
0.2972350113069674
0.27739072010495114
0.3503672670342691
0.40837751903260405
0.3981543810788678
0.30949820908853576
0.4262429788155183
0.4832077177868282
0.5308554709389346
0.5559874768075651
0.5367281803380569
0.5796334881580127
0.5568769654883009
0.5865496679280783
0.5770303825619624
0.5474900514530929
0.5378346441884586
0.5409653989921674
0.5165333015922792
0.5310765592213086
0.5273063844738165
0.5105577183199914
0.515296875508679
0.5279972376979407
0.5035096094474625
0.5094945488877991
0.5188963300416162
0.5046770313602709
0.5219815488414636
0.5190601052667965
0.5426501097985639
0.5421042922545161
0.5359075193168545
0.5300094845746199
0.5377739582938449
0.5318317316777831
0.5502438517564435
0.5501363783581301
0.588543503985503
0.6116321259667551
0.629355221862572
0.6038424679758165
0.6065188276919271
0.5799190130560326
0.5515705830508902
0.5383700326128709
0.5288255891103051
0.5295127595227098
0.5379602539133614
0.5436409161047264
0.5314453399165994
0.5498209106671503
0.547634349368002
0.5484042146770618
0.6162916380494052
0.8623617012626136
1.0
1.0
0.6871384134196401
0.5578646615821989
0.5623272491966624
0.5680072928804977
0.5278531389926131
0.529777537651715
0.5198741367255254
0.5350573111987851
0.5114374063565955
0.5233761345359449
0.5010086813716232
0.5115767590866339
0.5152286291303404
0.5162160440042206
0.522241175438327
0.5395547624512274
0.5507541158036615
0.5503497027656958
0.5800289957633942
0.5787856558196431
0.5935340295149324
0.6262288240852862
0.6696642596778541
0.6743808020161909
0.7277974749084388
0.7491957488658121
0.7685927376214267
0.7366916033072144
0.7037528274443143
0.6445400001645762
0.6089251034859007
0.5585241176599801
0.5393697323950802
0.5179527392201674
0.502466286653369
0.4794168387174135
0.4892668381361247
0.47925668139656896
0.4599282380569383
0.4600085753002798
0.440628257001225
0.41749666115525647
0.38090654297683735
0.38854439938291446
0.3264284750548245
0.3345201652502974
0.4462468470642925
0.5249914972565474
0.5268340106599144
0.5554832354161257
0.587478745790581
0.5317602891090991
0.4961887528626668
0.5341297329918147
0.516221756495758
0.5272856114995094
0.5216296097110985
0.5469047662812232
0.5567377933074396
0.741251808856455
1.0
1.0
0.9784541157136051
0.5829689584549965
0.5845213573369101
0.5814249280280391
0.5999464877261069
0.5633392416293262
0.5376036183972867
0.5030505795527349
0.520437689663472
0.5053794235209448
0.525550000574454
0.5314888087054545
0.5939425791864389
0.6012663646746235
0.5767625977446762
0.5631073683939364
0.5711043712638946
0.5339316156675661
0.5709290759967727
0.5435983067539254
0.5728647369068296
0.5747599710797727
0.6119179103866801
0.6073877435937426
0.638997993772336
0.651625352274795
0.7083074980282069
0.717350061674862
0.7131062563287017
0.7356029949342286
0.6825328757007012
0.6562501662080743
0.6753276662073877
0.653778427950618
0.6449127826258805
0.6378729889238558
0.6057450952474204
0.6167995272468502
0.5933046773363451
0.6045964272428043
0.5867149181098408
0.5885092596911923
0.5635030646403876
0.572806954694075
0.5452076404069792
0.5480168648575867
0.537917516991881
0.5549062946606986
0.5545344637489255
0.5555633276452608
0.5887462682612753
0.6075593028519831
0.6294524351358349
0.6034981835352098
0.5833771060765248
0.5667653350966854
0.5588637153059177
0.5369607107024061
0.5540397068835143
0.5844896133893417
0.6486129445217617
0.6939199257097883
0.7852361583817014
0.8305398171002327
0.9210670675144851
0.9785295371808023
1.0
1.0
1.0
1.0
0.6677973734992916
0.5386858204158216
0.4334960952684835
0.41912346432420816
0.40052977707928716
0.40392290288049654
0.359528747455815
0.3572074586672616
0.3468100079436429
0.33896894745653966
0.32475590968600143
0.30656120150109595
0.27403919608202637
0.29777830239666414
0.2768351040380789
0.28371084292407156
0.26682953427103046
0.24180350275863677
0.22856835840524087
0.25468716631996874
0.24481031979048334
0.2847506385629241
0.27486398555117286
0.2811054218448511
0.2932589775794743
0.3167715456028142
0.3140851978524978
0.34829912362648285
0.3636194604387796
0.39119170483222077
0.41264188987841466
0.419104684110594
0.411408470311836
0.4090742141902318
0.4127647553432275
0.39711799903742806
0.38695362345200807
0.3837643885541368
0.3796831180122113
0.36663476166220077
0.37189944862455004
0.3608225179180039
0.3739103794962652
0.3682082345912385
0.38962291314365327
0.38864766252601646
0.4134971094831238
0.42112141058139424
0.4444074135286592
0.4614955311284875
0.4759969397415619
0.47419807655903856
0.48771046184000333
0.46069813794347925
0.4428106968933513
0.41221477010835594
0.40274677144856186
0.3790104807646481
0.3577020402290741
0.34468376978287296
0.34397555712228123
0.34883505617070565
0.3367811723607351
0.33450244808986074
0.2994974271636766
0.34058773316904534
0.5304506865343867
0.7744694104041165
0.9408629935389918
0.6927641103866701
0.3616910960001214
0.320660003795101
0.2848443274953675
0.32018596320154896
0.2945173658601924
0.2899307547246399
0.2711453679853534
0.29821271217104667
0.29294406108493143
0.317484030741598
0.3186434059267788
0.3270198326620002
0.33367247189431215
0.3400272872913347
0.3443492299530185
0.35760656615441766
0.35993843875225806
0.35643030746009463
0.37354481536369477
0.3767893864726451
0.38901946975274077
0.38923879250881044
0.3987164105149489
0.38530207659266097
0.396623795143287
0.3937215281148661
0.43216091808723167
0.42594776927111583
0.4365835164288083
0.4301079249770883
0.43400428778423683
0.4195646647565411
0.4093284914409773
0.3881839993497246
0.37143555370692943
0.35607476115079484
0.34583215807526585
0.34104076562425334
0.3357129143110944
0.34309015779058843
0.3310794803584689
0.34045254616854126
0.3353188130031028
0.3477817935743337
0.3434348141644605
0.35745938149080286
0.3486245432690963
0.3745672169815807
0.37694565228757043
0.3929726660918023
0.4068526755606496
0.41770906836587285
0.4109735372625253
0.4037779722609269
0.37816371536168714
0.36591174310170044
0.3493478814210221
0.3521986166292626
0.34375173327241415
0.33022453634184806
0.33785673416266737
0.3275108787911048
0.32422387219654514
0.31109830273122296
0.3079190163478068
0.3472275703977926
0.536041238282061
0.7885310699661627
0.934621502693377
0.5678821763687936
0.2966924448549202
0.29791849404256193
0.3341298979809043
0.3340553154731857
0.3363383027851384
0.3308938837664468
0.34553026994647007
0.3421819679999575
0.3492447569954975
0.35123186941064677
0.3660378353294441
0.3689963886463822
0.38042721579342703
0.38260208370851617
0.3935619275180529
0.4002847141375113
0.41873071956260055
0.42966340729068986
0.43733573332596454
0.45503849590455914
0.46960991326928586
0.48748656287150105
0.4945275432311041
0.5151259566049929
0.5204920064856798
0.5316817762498933
0.5285243943505077
0.5499514933854475
0.537187890078488
0.5542535202295175
0.5407793957871947
0.5393097195182508
0.5155816228631792
0.5113225577748429
0.48544808821291807
0.4886755113259612
0.469911656433628
0.46844775050699683
0.48634722538922565
0.4868757818084365
0.4780585152557702
0.4774002964977563
0.4663211903621929
0.4750202946909831
0.48289975388503
0.4804573223874339
0.4874571748679683
0.4932188233675399
0.5140092538014487
0.5061342359904341
0.508209970688834
0.49803943276707374
0.49286115109771417
0.4653353516772688
0.47070292332983377
0.4694249400342474
0.4733573648481032
0.4751300921503699
0.48530632846938976
0.48958668638048647
0.5015560199300205
0.5074955546493247
0.5095416820780742
0.5561240196105556
0.7391829697056342
1.0
1.0
0.8864245715883285
0.5748358608261779
0.5446412247711546
0.531328550901436
0.5366033505505239
0.5170391422558132
0.5102562212704798
0.5086771334552941
0.5192543548882719
0.5096036806940389
0.5245655821719015
0.5027800706703853
0.5279441406812265
0.5244645094147568
0.5349664276719103
0.5277100100000042
0.5417130854085526
0.5364712889472272
0.5460782814778612
0.5534371917274933
0.5630709093386558
0.5657586962652399
0.5864937857690095
0.5875887214504871
0.5950309134650874
0.610453646242757
0.6234904362484739
0.6310244017368573
0.640693820849917
0.6544043588677813
0.6417192702329046
0.6458807498233468
0.6336105818451092
0.6437686770145632
0.6307575691061935
0.6404725589496201
0.6296589268209856
0.634268769108784
0.6356766090290681
0.6334598992742908
0.6249607290287319
0.636513770126108
0.63175534084105
0.6426045373447911
0.6353544317745972
0.6543484974445606
0.6603515790013059
0.6794316983302456
0.6883054993494373
0.6954197390174361
0.7058784386816817
0.7201531187331812
0.7536235952163383
0.7913493515873429
0.867007559144837
0.9188919294928442
1.0
1.0
1.0
1.0
1.0
0.951595759482727
0.9070916743230633
0.8604744565765916
0.8606960650675287
0.808941240730691
0.7189357537335349
0.5912755642708124
0.5459211536605709
0.5166008915474373
0.5090254581652423
0.4939206405042582
0.4916239251634633
0.4822358478376958
0.47872966558429164
0.4666719342057516
0.4499280676510665
0.4364429079502572
0.4149921491570148
0.4129215826446789
0.3955179935839725
0.39386814001813175
0.3846539609201966
0.38793749029672797
0.3848390301640875
0.40048850373246064
0.41105963012250024
0.44153694638671964
0.4623911065324835
0.5173216958287331
0.5484101288141886
0.5998364553410471
0.6361469438860787
0.6726149906742329
0.6842635497418286
0.7049172663614238
0.7022309913883105
0.6992775221499686
0.6954479365763022
0.6886365401168353
0.6938827910572201
0.6959212158234115
0.697279714725837
0.6945375815651464
0.7044368602861812
0.7013632437845416
0.7091239987840463
0.6976393461649142
0.7067613234074004
0.6970007047148193
0.7032732106343939
0.695439730084413
0.7111511778539927
0.7066078579841454
0.7290056980579251
0.7123181956890388
0.7108882100078997
0.6883886318089385
0.6789663385215768
0.6785556403674042
0.6953183150183524
0.6857961164699351
0.6912475403106868
0.688175239969121
0.693040241664747
0.6936724438705231
0.6979337313593549
0.7013440236437206
0.6943018381386585
0.7168412152631299
0.841013829824169
1.0
1.0
0.9705312711782131
0.7199790070419904
0.6885055622276945
0.6899320972103242
0.7068879505975156
0.6882083290382112
0.6976314983612768
0.6895116818517385
0.7035924879814719
0.702706889662782
0.7074257652098388
0.7043074328060578
0.712246363107298
0.7083419809884306
0.7061556604500222
0.7055933357979102
0.7117914180355359
0.7068668888688785
0.7172168991380378
0.7181079881393225
0.7212599907457039
0.72876629141621
0.733013271687935
0.7546405516282906
0.7587751621755114
0.7705425330895617
0.7729703520695335
0.7848661839298421
0.7815870289187062
0.7909648838286361
0.7866362164602358
0.78830914042657
0.770612687055734
0.7602039357189005
0.7400213968327354
0.7307392282598872
0.708347408078493
0.7072113386807848
0.6915949100863299
0.6927256846768096
0.6808859552928992
0.6869495519467173
0.6886385396809374
0.6805577421005682
0.680179436756632
0.6808692481324681
0.6926652489551751
0.6947168790335654
0.7081271828067559
0.7106422594283267
0.7101552439186316
0.6983284868798827
0.690211199158164
0.6672612435709496
0.6646024056591157
0.6478595043068139
0.6479129169496088
0.6379688393689452
0.6382404408647184
0.6308449522246435
0.6330698898069379
0.6200649028117268
0.6214920899919469
0.595849638217388
0.618422129293111
0.7274488547514217
0.8920472046345139
1.0
0.8297751624805845
0.6065825359164737
0.5794202700060163
0.5910283493006514
0.5886527857314137
0.5794924734052612
0.5748489307012479
0.5824195652745688
0.5795161899531058
0.5899623645818596
0.5843745117290383
0.592064450314893
0.5909722384984317
0.5972427258207211
0.5894724734272407
0.5992257882501519
0.5971878273232021
0.6007446770824639
0.5912582683456511
0.6086143861586277
0.6089521506718054
0.6153494578713904
0.6134364130663708
0.6212064207059991
0.6228318499359988
0.6257334715588285
0.6310727791535667
0.6329662212288782
0.6389946971159427
0.6324349113892797
0.6427059822334671
0.6338574284120883
0.6278242810941347
0.5975058706090723
0.6003340280502307
0.5858319424506048
0.5841030862100208
0.5720658959862367
0.5676956620842741
0.5572274023302817
0.5687891753719286
0.5631402621223058
0.5665015493003224
0.5619526016198554
0.5636040264427328
0.5629542124980584
0.5759694007068836
0.5892047150048997
0.5946494815233238
0.6076960297432923
0.6091647302880155
0.6042882309745569
0.5960748565092742
0.5859823914909736
0.5761138237308968
0.5641941841097621
0.5482755974655027
0.5537814411175737
0.5341140644853588
0.5353815236924966
0.5305608292068956
0.5232434861228238
0.5148343763572445
0.5169749937994108
0.5117220234399366
0.6046661108932261
0.773063832763009
0.9573596242725972
0.8244813575251981
0.5746709474289722
0.5076602160648518
0.5094833403597792
0.5058187303112215
0.491494315860925
0.48738339117050583
0.4825191244348532
0.4831975374558419
0.4751134821476536
0.4788286066528252
0.47493180880042346
0.48107310301397704
0.4704695409992673
0.47513282569880183
0.4731950397661147
0.4834358661470011
0.48444105610886046
0.4960255662832635
0.4960230852035923
0.5090191328967295
0.5036498416392556
0.5203280525955447
0.5176554043109856
0.5241025251898976
0.5171014582025687
0.5368577254431295
0.5425222067352693
0.54725265086675
0.5409132272498566
0.5408281805298325
0.5269089392332622
0.5130500307317741
0.5033000342664885
0.49070428954023937
0.4860504897137098
0.4803761122352658
0.48815906808241827
0.4828916545564894
0.4849342569989755
0.4808353798223652
0.4879188255626648
0.48287153774617797
0.49179556826942267
0.4901146483879907
0.5075705917195259
0.5178288988992408
0.5400814907572449
0.5419971621099068
0.5716892481769938
0.5888002597208074
0.6344975938116064
0.6806818227318457
0.7475246493195149
0.8103863361611156
0.9001741102383647
0.9591515865333904
0.9361503793385015
0.8755256970102365
0.8009505578119388
0.752901014847586
0.6846999899115189
0.640571257668222
0.5740608517473411
0.48021833367972755
0.36086885239544475
0.3222146059946417
0.2934278727362265
0.28328900637569226
0.2700832855639467
0.2672770608992732
0.24968921797547594
0.25201587333219044
0.23285071426717155
0.23432485307069287
0.21971890948934042
0.21608148720976486
0.212244778824397
0.20868827992972397
0.20072148557439892
0.19644228605008043
0.19055062443996454
0.1985645689158945
0.19831336546170464
0.20838972937143835
0.223327190950615
0.24705237568063487
0.2626228373594097
0.2837319500006988
0.31891831725218067
0.3368214613418881
0.3598506413188479
0.3652169323486656
0.37878430418867437
0.3748997924838193
0.38456516374060723
0.38112526729204177
0.3892136265022651
0.37733728943054834
0.3854021327516183
0.3804057718004287
0.38555271263148205
0.383550518790035
0.38390427863231447
0.38170363133058366
0.38002993672964075
0.3763700815464624
0.378811663944143
0.3814053277025248
0.3981179701084784
0.41189754905985865
0.41633869929455436
0.43528095156963725
0.4345200724144827
0.43622181027873613
0.42466898472934406
0.41067121685958086
0.3958170209641186
0.391473657792055
0.38422745480255527
0.3889267455625828
0.376154364745657
0.38291332891723406
0.3684418761314448
0.37659164298497333
0.36128583301265094
0.40866816543243295
0.555140203051503
0.7532670945793021
0.6984828196920062
0.3898381172788197
0.3356747697454615
0.354380194308013
0.3531419461821544
0.34919908952030865
0.3463457430575238
0.34159130143768446
0.35066737224714
0.3439975705806143
0.3554381602778669
0.3511339483953975
0.3600010033303936
0.3557837658279112
0.3692077451458495
0.3662844569077891
0.38254614748600185
0.3770213457530951
0.39046553205148876
0.39106798365167067
0.40143189402712565
0.40776846059391403
0.4193668123249106
0.4229316034303028
0.4335762792740739
0.43795354431126776
0.4423006330835923
0.44688974810705273
0.4412918745699139
0.4338310518325219
0.42757508724340554
0.41983007427646984
0.3960945026390263
0.38974159578601864
0.3765378576608701
0.37759692274059836
0.37383609957709946
0.3782334970543337
0.36948886391472857
0.375098639450656
0.3672212971659044
0.37100488653375474
0.3748556845599144
0.377690864819364
0.37706266042555864
0.39169733595551254
0.390199456775866
0.38418481711831687
0.3719391295286883
0.3672305123509025
0.3468531502293496
0.3440234908533088
0.3382920684936236
0.3407420238806284
0.3422726527281146
0.3448088131876803
0.3436241910190012
0.3452048872407792
0.3316901052872672
0.3786086705869115
0.5584888740770346
0.6745142953437195
0.42732996815750984
0.320753922160396
0.3563735642467337
0.33018781652986057
0.3386178560967273
0.32545945740611665
0.33774362504508604
0.33256486146106146
0.341547955228254
0.33361019184448243
0.3418663043808913
0.34432864844099126
0.3491083958245488
0.34501483583269044
0.3493542131225861
0.3550079722324887
0.3633796934283845
0.36389350957077754
0.37436182599657986
0.3726837502574279
0.37427653103437003
0.38115141288211773
0.38042477650553114
0.3890877970571479
0.38376830298446346
0.3864015186431149
0.3866450249668735
0.3924852511613232
0.3777691913251328
0.37299693999921796
0.36518189667004897
0.3592229252601976
0.3509738607237988
0.35180602742397904
0.3465706925605425
0.35116151468218765
0.353047870253142
0.35769223419881896
0.3570409068000878
0.3601329782902055
0.36153737562901134
0.3700310095553884
0.3763486068275645
0.3817393261124664
0.39392858013103804
0.3901760036540606
0.3937475296121577
0.38254395598681235
0.37904397710274723
0.36695236103955287
0.3652521751373173
0.3552257050465446
0.35637835081003044
0.355326467498454
0.3624326073721116
0.3548020815546604
0.35322214751308373
0.3409068080317371
0.3732050822670555
0.49215799403828486
0.6696878004666017
0.6978025721565654
0.4825524188686813
0.3541120848770464
0.3570735890847523
0.35087545007166143
0.35157695799451294
0.34658377326623674
0.340789874237417
0.34794321105013604
0.34736742447333696
0.3478801747396284
0.34938898401594914
0.35310817307467
0.3504607307358654
0.35896483577150434
0.3540260079317824
0.36452522245332775
0.3620511829686004
0.36606950582097414
0.36733934075699504
0.3758355656108593
0.3772690157259929
0.3885984978369872
0.38711470400875225
0.39399818358777533
0.3941521278965059
0.39616901707362107
0.3997798087990187
0.4080413561650218
0.4103128030601121
0.41081765646728324
0.4101087560527749
0.4056176468750879
0.4056955001032156
0.3894141276383114
0.39165951843581814
0.3827516573532218
0.3808936948640348
0.3797344050104992
0.3779748740812928
0.37989313619098264
0.38418331389488436
0.3821471960450099
0.3843892696181
0.38696095790118995
0.39513221715606733
0.3937443492231366
0.4024057384883627
0.40009809878434954
0.4110534757983476
0.4161684353896371
0.42329313922359535
0.42223363297415756
0.4387570323791401
0.4494474325316906
0.49072380060815235
0.5430930979929037
0.592499391172008
0.6565660534337024
0.7160347189785604
0.7565155161956023
0.7308245404535799
0.6945111141714253
0.651176672636455
0.6156059032750776
0.5792609355797247
0.5648458406454078
0.527167423968382
0.4570528006137836
0.3587620116483163
0.3141491246165737
0.3019813691682426
0.29426551499220893
0.28377183372339093
0.2811426665601094
0.2745882031200316
0.2706568214829345
0.2628142479745378
0.255450471136904
0.25195432960687036
0.24581198375045252
0.24074129725810497
0.23615438034449462
0.23507805719727518
0.22441574555164406
0.22732956277213218
0.22029991653391937
0.2243692060792671
0.22348627039673427
0.23500490186748388
0.24188352558511733
0.2669652933842039
0.27862854009829396
0.30047377181779944
0.3153103778825719
0.3325600109194993
0.33893531201066857
0.3539655609599272
0.3549803464722005
0.36199057697046405
0.36386412007834834
0.3682763538080175
0.3655088663314202
0.37296271159466926
0.3730801344382249
0.3802491644326621
0.38340424848713345
0.38175738986599345
0.38535900150062863
0.3877344379454618
0.38684895459673585
0.38914654095823226
0.3980858685605649
0.4003613365022579
0.4071241459949201
0.41547234870267663
0.4166235702892692
0.41370755865299247
0.4119149956360914
0.3937911990235519
0.3933283867191399
0.38775237615135383
0.3859521170933375
0.38186375140097495
0.3858427190338852
0.3839740447764843
0.3863723000159396
0.3912124868234012
0.3884717301094637
0.38559203220164084
0.39203845195573916
0.46310249788423385
0.5925176409320949
0.7093850750361044
0.6069478725212891
0.4276087004325368
0.39015990119700483
0.39169160907022016
0.38762821208327436
0.38437760772133167
0.384722986865068
0.38590886911926187
0.3831414340942492
0.3881228059503852
0.38890570483777687
0.3924996925019588
0.3893291859993875
0.39781874483418367
0.3968634003159243
0.40617225063702583
0.40665229927561286
0.40882353799417137
0.4137982820246563
0.418812406290807
0.42044259476398993
0.42534703961100806
0.43131659071612233
0.4330296542626302
0.44036979136229226
0.4457851052119241
0.45361345740324077
0.45638921589601794
0.4638036849371502
0.46418023039153755
0.4784867918313598
0.4744106393514853
0.476767954445548
0.46877234894070474
0.4694587762931738
0.4520818586223925
0.4502393682505841
0.4415308561608164
0.4397259029388324
0.4327509998644118
0.4348245555935236
0.4328817144378532
0.43175429170819796
0.43483281738507634
0.4330129031870711
0.4354839164537845
0.43722023108166147
0.4483765527024336
0.44482400234981456
0.45636660487396413
0.4547930773212639
0.4591761205424139
0.45083131720862346
0.4516206769679405
0.4419599287432959
0.43508615758730257
0.424412954221571
0.42795600663853917
0.4224351651017758
0.43161874231740915
0.42552054535875705
0.43259992679283615
0.42840331218245653
0.4305186557738045
0.4173862681521479
0.45376029704023557
0.5564473377553294
0.6825657752585256
0.6346235671955839
0.4523198522509738
0.4231037800507256
0.4384861014089269
0.43784325306843674
0.4349598041978647
0.43490820459477264
0.42754788243741737
0.4335253037630646
0.4331039232235484
0.4384882656489437
0.4371533086416595
0.4435980640669233
0.4387042797229686
0.4488253871460768
0.4421592598272956
0.4529906882710463
0.4471401034328023
0.4558631291523021
0.455292715233118
0.4612285405725185
0.45869394615774467
0.47120189274794966
0.4692870886511763
0.4699518875485868
0.4710853088076801
0.4696477574420471
0.472430044531668
0.4759166851649783
0.4811319204387072
0.48391679056056364
0.48295026743230796
0.4763883694043828
0.4713211187880539
0.4648479281161936
0.46872595950686324
0.4601892150977277
0.4680521014579477
0.46401740652458495
0.47103646090991774
0.46734383383711986
0.47679445964372
0.47281414704718
0.4840510842330141
0.4798178237792102
0.49177896731416465
0.49118413881771755
0.5013745386981665
0.5033437846327931
0.5084166515473951
0.5022404861996584
0.49730623491733555
0.4892785826530889
0.4821583893241808
0.4755861888398142
0.47134343919526406
0.46955925686645417
0.4652691453045624
0.4703353073420504
0.4621581269193851
0.4646042007542956
0.4628958024604207
0.455400840990755
0.46671965997577064
0.5563656354785081
0.6779107285263828
0.7036105931483989
0.517713897689976
0.4426751740767824
0.45717396791988907
0.46638242797644336
0.4636240396659311
0.467928359686051
0.4642586115806733
0.4679829825105756
0.468382581627257
0.4693248913898856
0.464670434295984
0.4766834279518798
0.47757194127994407
0.478539335356644
0.48051897699927765
0.480077292411881
0.4885417375089429
0.48808387206760645
0.4972347441615016
0.49418319319308895
0.5016741545967897
0.5011095527955097
0.512532894804682
0.5084379380546948
0.5172129917559218
0.5207273757490084
0.5194225527251553
0.5183856149838553
0.5249310259340892
0.5228518456169546
0.5248764171305019
0.5121404380965509
0.5133008969472872
0.5057556714514193
0.500552694775015
0.49588281027155967
0.49296096566557457
0.49029040061781554
0.4913803622314055
0.49422003594674174
0.49793705818865536
0.5016885823363675
0.49620848431161946
0.5041434720755231
0.5008377727944547
0.512873107393399
0.515861723732486
0.5238400692985522
0.5194966372664727
0.5245818664073698
0.5176181052462705
0.5153398538054771
0.5174366438009913
0.5484851811531
0.5742371096810934
0.6182761181970935
0.6604721280795111
0.7222759924010985
0.7882921742157526
0.8314568695702699
0.8070106056105908
0.8100164002972695
0.8163932798359289
0.7800158262741984
0.6091410904294494
0.484332560539123
0.4597867909077885
0.43247282992033237
0.43277223706717044
0.4186262760844242
0.4206509956672102
0.40977180862790397
0.4111347459230908
0.40331061901246573
0.4047589587392265
0.3921452122362626
0.395680205049206
0.3813120345265878
0.3792245496401031
0.3722287706613208
0.3718269898984439
0.36092059927019543
0.3631805878133322
0.3571495398578891
0.36440632916448035
0.3664489956156348
0.37467533297724
0.38240259863247167
0.3978000288201977
0.41503886724883393
0.43146298959292234
0.45416539855912097
0.4650660770992802
0.4748468020354257
0.48211414371975325
0.48811697001963916
0.48758136857986256
0.49216657764338584
0.4917991127535476
0.49607339604797085
0.49209606102852177
0.49728046537384873
0.4928444610988919
0.49603443865679575
0.49544575318652645
0.49949265702833323
0.4999489523501963
0.5071268834924985
0.511167902962901
0.5201544124148306
0.5168605520496623
0.5196910865282353
0.5195490572182442
0.5112382112819936
0.5047934029400662
0.4967886200494395
0.5005511317665141
0.4971227092719171
0.5009853144662952
0.49967987589308177
0.5052550673529063
0.5030505037922554
0.5063834980875719
0.491727161530153
0.5306033195836001
0.6214607820079969
0.7633166403970526
0.7516712808404387
0.5618741492785628
0.500292003904234
0.5141478537681282
0.510259467756097
0.5107697223226804
0.5032561838556404
0.5053963511686447
0.5040187703544583
0.5053195428300071
0.5037241509605793
0.5007850523755354
0.505668950441692
0.5044129191156823
0.511220912217333
0.5095623806390948
0.514253367306267
0.5123517171187572
0.5202633941264296
0.5181188919584412
0.5263022911798559
0.5256350788752437
0.539484209462807
0.5341245213834507
0.5415846501507328
0.5398845142683055
0.5484094438579803
0.5434678330678687
0.5532672952643112
0.5522476027805562
0.5513765535180883
0.5439855056420934
0.5454815447345784
0.5353382603191896
0.5333221423242609
0.5257053107210643
0.5238772155275137
0.5348163223990892
0.5266523959813674
0.5352442375090233
0.5336448481877315
0.5367003881496357
0.5331842090367627
0.5383912508805377
0.5399771324714626
0.544011235445975
0.5461409886591272
0.5591226710939663
0.5538351919073798
0.5545063209857014
0.5408887500798951
0.5369130183266997
0.5249215777406918
0.5243110897605224
0.5116334199784726
0.5220424071253269
0.5175200087926333
0.5154214145276461
0.5253883124345098
0.5293894452430711
0.5148826257961538
0.5510571278585294
0.6547579442165878
0.7989563701852977
0.713173566187469
0.5248185740442858
0.5159102712605061
0.5199566471167512
0.5203829240717981
0.5128652762797956
0.5207105716118788
0.5134122065955944
0.5182864136281136
0.5093354658956034
0.5216450253702103
0.5219631796802682
0.5228819723047541
0.5218887666696611
0.5268062191547138
0.5208680674776885
0.5256043125799594
0.5256974423676832
0.5351763283488958
0.5320972383761109
0.543480343485788
0.5454192121275763
0.5481491940285181
0.552614519022942
0.5538914448287582
0.5597704139149534
0.5652394257273505
0.5695228079076488
0.5651796167772437
0.5688157830942693
0.5615053800090166
0.5636964436332093
0.5561981204749202
0.5530178607044208
0.5432598269042057
0.5494571113064708
0.5450799529958416
0.5465965257452725
0.5406779438549751
0.5421350904731079
0.5408352213237058
0.5420673033506788
0.5367234982655098
0.5438525910092981
0.5414208971293328
0.5531558731396826
0.561024739446602
0.5663295535779518
0.5697807200150325
0.5592001138121281
0.5518668360635963
0.5417212057987434
0.5423464512500586
0.540377158366336
0.5468036334060301
0.533894653816198
0.5458215792018807
0.5424534087634376
0.54004116745426
0.5193091292522168
0.5667906546395127
0.6991391184582072
0.8710990149811849
0.7867731145477362
0.5953106250129998
0.5436574771888442
0.5418377552971885
0.539355357718608
0.5311586846170375
0.5333377797504716
0.532912531198951
0.5366275842465523
0.5330195614657469
0.5335818888153055
0.5358862060229226
0.5424633389658721
0.5341205663079543
0.5397681634285788
0.5421988755029649
0.5465219530117974
0.5446663054408971
0.548486496495842
0.5474213714081053
0.5561682182545991
0.5554019273854001
0.5619354644291716
0.5640232843529034
0.5708892510953515
0.5709199611138817
0.5759102676931184
0.5805306457719066
0.5835392616343499
0.5793950889166348
0.5805878689161227
0.5713323128596806
0.566038694703614
0.5597727618890994
0.553077395630009
0.5518965202502606
0.5467018397156842
0.5463140019657409
0.5470713161029335
0.5496076504774254
0.5457853771633026
0.5488281525085393
0.5447795146121375
0.549479828111879
0.5546927355886925
0.5632688295853996
0.5566344768094922
0.5677559705360875
0.5678245031551427
0.5767135848484586
0.5725199994208898
0.5866040217148658
0.5861699015010718
0.6082063246813674
0.6359090487013414
0.6709647488625639
0.718594039093086
0.7602821577004455
0.7936397662355632
0.7770779108167145
0.751756528512727
0.7339787236609835
0.7224040477043712
0.7208222589141204
0.7259109585432071
0.6720338948954757
0.5754031769296768
0.5176766505075655
0.5085068712772365
0.4903970875153717
0.4856875717383845
0.4738655653355773
0.4747264685703766
0.45945257194875966
0.46339688833583825
0.4501553769981784
0.45006004613071954
0.44157881322866543
0.4419108140154876
0.43652682879799665
0.4345526862080734
0.43040560331214295
0.4285845587155701
0.42856541507163454
0.42606472333913314
0.42939233671446964
0.431367286717086
0.4337351319564083
0.44177567759706077
0.45432483682623837
0.45860638887982114
0.4759724256355991
0.4827537468303123
0.5029479163529033
0.5044254476079219
0.5150522871874106
0.5129971402864199
0.5198745790150598
0.5231035584475965
0.5289270938072117
0.5242545149878306
0.5293259694451987
0.5263946820386184
0.5291536839870232
0.5242458295347309
0.5302964309419036
0.5273022461364749
0.5303878105711373
0.5340321019315067
0.5424283722236725
0.5502025092373634
0.5586543856269348
0.5664409459482571
0.5534778143061994
0.5533040759706561
0.5489757764034714
0.538901676595144
0.5238008404644978
0.526688422965105
0.5149590505326974
0.523184446999584
0.5178762950626551
0.5236474259189016
0.5155472267275446
0.5206495063167613
0.503835167912322
0.5415888343205267
0.6571036537153916
0.8099814866238791
0.7572866500787929
0.5537651262655978
0.5111869187881434
0.5277429017574067
0.5336733021511331
0.5256114083441202
0.5278558614156185
0.5315490350544931
0.5330006875202995
0.5320466302190642
0.539363860060678
0.5375932956402065
0.5499513916161909
0.542233409372785
0.5430773101142925
0.5475858091645734
0.5551098020384153
0.555351089728365
0.5648347394205475
0.5677274296973369
0.5789927826476012
0.5760910785727381
0.5877988981635216
0.5917479679421243
0.6058801301601131
0.6053271421635741
0.610562756953449
0.6214418688351582
0.6171897253557213
0.6110538663005187
0.6058262479155149
0.5899097561718978
0.5810622976356968
0.5733562653170241
0.560143711220412
0.5617387756631387
0.5588038271956318
0.5621869216192911
0.5672344395912696
0.5673517782243687
0.5707019682228368
0.5862877801265192
0.5888125265422645
0.6088504502676606
0.6026920756483584
0.6000648751304904
0.598069048405818
0.5837712358727354
0.5609500430978882
0.5637223445385782
0.5614356324373871
0.5635771629335309
0.5587286199188375
0.5636370508428357
0.5664909247782903
0.5518513805434426
0.5805946920862228
0.6872186350766359
0.820384029425529
0.8486572141878395
0.6672366488443913
0.5606478848666164
0.5682832233237678
0.5678225856895166
0.5708813978870526
0.5593454162998366
0.5548668498541958
0.5525794557724183
0.559210893813104
0.5548246119571428
0.5576927614093249
0.5522204805634481
0.5570094994181767
0.5623221201643511
0.5677208944720209
0.5661811980721786
0.5738779939215765
0.5732919223139079
0.5833379189914915
0.5845491951696482
0.5889576346770242
0.5951779253017285
0.5989068620457751
0.6069566565347175
0.6064372419265294
0.6133686964508357
0.6101611796183529
0.6079952982581146
0.6060464794720491
0.6059841606531291
0.5940678784751119
0.5910116167659746
0.5843561776137176
0.579434482055015
0.5711228426899554
0.5716623589655191
0.5584461725940593
0.5679394031180399
0.5628795095647702
0.5607937434317671
0.5619349567433227
0.5644397589889847
0.5651226625009851
0.5653044733854207
0.5725128346776397
0.5739934080331714
0.5817858613737031
0.5873380154315763
0.5936578222935791
0.5906491453768106
0.5880998978818488
0.5746523107657107
0.5707954782017886
0.5641045483698988
0.5623457889067252
0.5549217579362706
0.5592907848913338
0.5542011233974835
0.5593564604413588
0.5542586673811825
0.5564675282686183
0.5411938964572434
0.5703528017804299
0.642540522257815
0.8028419560896172
0.8851132717168075
0.7171896050061536
0.567500397636479
0.5502382007354983
0.5402318287708134
0.5378405417841864
0.5346257196020393
0.5279440941967286
0.5337542713827972
0.5302552837587682
0.5303508293037987
0.5233035769325985
0.5304761940814247
0.5274831265292992
0.5297913845332463
0.5307774681953116
0.5365279402971433
0.5294888979756693
0.535857663635926
0.5324634495324523
0.5337688249063934
0.537300084096125
0.5455561863711453
0.5425642588715267
0.5445444694525801
0.5488927317135424
0.560297291726614
0.5529211188291836
0.5645530891434046
0.5660321724843987
0.5582501977691856
0.5572129958960175
0.5492528339040474
0.5476907294325916
0.5349846718804497
0.5378858768822412
0.5265140457455604
0.5277108362036523
0.5219130828322667
0.5284544359821248
0.5299178505139929
0.5359776887467264
0.525379075090154
0.5321558842794459
0.525205200558702
0.5353417090049273
0.5391608382916745
0.5461269046646915
0.5549222394125926
0.5608611641527195
0.5663476116977789
0.566770907199764
0.580709172592508
0.6103146798009622
0.6414630470067522
0.6754055657759587
0.7233768987370276
0.7687686794168938
0.7912472529940524
0.7622106815348785
0.7344437823242251
0.7054587253705205
0.6815823208144891
0.6614324733886445
0.6509961555993152
0.6236034401634348
0.5676284231794213
0.49295460755149234
0.45766076303955955
0.440553562391249
0.44247759100342743
0.4278057161451333
0.42740361532590726
0.4175644743223182
0.415786883821438
0.4103748076002816
0.4107832817677636
0.4012868669143506
0.39372802973624205
0.39758229395194605
0.3887181860577345
0.38789322311574936
0.38641535296415996
0.38383831430337906
0.3840240017554339
0.38043618813195196
0.3799747701576524
0.3931560011889804
0.4021849745428522
0.4144393680932841
0.42477071641198527
0.4408439582771121
0.4482540653641859
0.4688608271468536
0.4696215416846507
0.48110061005903954
0.48452526146376806
0.4959022756704772
0.49369235575142545
0.500865796593583
0.5004836840856256
0.5015282226621541
0.5052223934068946
0.5040914099967456
0.5098567782698596
0.5082950776211023
0.5168987964654984
0.5147892598248922
0.5140567594089324
0.5122713582972538
0.5179530163082806
0.5141458768074437
0.5163178012445983
0.5153091764707081
0.5276810589224923
0.5260654307197168
0.5427721801070298
0.5482251472424217
0.5446222584013041
0.5437312665408214
0.555120131228295
0.538062726513298
0.5211040770704009
0.5164590570000857
0.5164697983512061
0.5155671288426119
0.5198653506001113
0.5289511363089603
0.5303667871050461
0.5378482882771944
0.5359603788749727
0.5579685327833118
0.6439956318502735
0.7688169215045699
0.8184288392482799
0.6343930503362862
0.49048271311611735
0.5071332032270829
0.5111047581520085
0.5086863012671373
0.5121135147797973
0.5085397141646653
0.5051447235988593
0.5105587096602809
0.5093625901555128
0.5267759237042735
0.5171779559330425
0.5261144565543209
0.5388754366594662
0.5333466889367747
0.5232598417082909
0.5385857079560108
0.5317599142643307
0.535334055279632
0.5437884235395704
0.5298317292849348
0.5542246613366176
0.5507088534052754
0.5675275136346845
0.5874133316915421
0.5887162786044552
0.5997368196055122
0.59832276359815
0.6031599836200123
0.613482742148265
0.5908877299456066
0.5958366522838474
0.5653995116261632
0.5663539626527634
0.5502823968535387
0.5474115291173107
0.5373860839716178
0.5331173343313758
0.5220581300435365
0.524797808057585
0.5140369171496729
0.5215274339336622
0.5222024588554172
0.5120877567090323
0.5161607033316138
0.522437037664288
0.5365411896459855
0.536929338494729
0.5393405879899766
0.5480041889923434
0.54682179144722
0.5272422876134645
0.550560574971116
0.5389804079510656
0.5282764976576744
0.5125476512913467
0.5069829891329495
0.4941524283637066
0.49780757352083504
0.49310311597608536
0.5089591632109578
0.5024401866023254
0.5150969278009897
0.5095569083711572
0.5097530749924454
0.5532661684834185
0.6451742216113476
0.7863044219113222
0.7518449590999202
0.5162014976975832
0.47029629682011864
0.4754430093118785
0.4926346273762271
0.46881062805470564
0.45865261454781525
0.45043128137046357
0.4551544845017049
0.455257913686995
0.4544989914057025
0.4586621810059242
0.4610760658135577
0.45723446377844823
0.45860216722483493
0.4688680961280752
0.45826792924330817
0.4681112892510383
0.460760472363238
0.458588418498001
0.4617288865302164
0.48695264780923664
0.4881846861135051
0.495427291254363
0.49945753645931423
0.5088218807378557
0.5181798205732006
0.5205657561998398
0.5199694540488397
0.5303039224109398
0.542282896506894
0.5399800182609121
0.5187181317319087
0.4869017887045205
0.4917985734965412
0.4948878638607198
0.5013383236815113
0.4911670281523355
0.49555908119000325
0.4768654540018173
0.47585836464828646
0.47627483058341796
0.4821477155006213
0.4831768438688154
0.5026862686305646
0.48742683741750864
0.5012537240956947
0.5053863497452986
0.4892404037276242
0.48914949311123246
0.4982390001276647
0.5018801046132211
0.5161088450340414
0.5213549902623702
0.5199035491273354
0.5304671321230765
0.5352196540637356
0.5325616935124533
0.5282246279675482
0.5206786164667625
0.5011403212904146
0.5115995282036666
0.5011485095027751
0.4979935299112922
0.4931187317408659
0.49897220825021976
0.4963851406563632
0.49825298073250607
0.5039731211425653
0.5228375211173587
0.5956954521016182
0.725005498142407
0.8373481751695129
0.6875606567002157
0.4989367741588343
0.4937066563151462
0.4994623915785576
0.5001982389707785
0.4913343404300238
0.48515079333720224
0.4840908155561916
0.48911791453344805
0.4942193733248387
0.4856730381000867
0.49546991785604855
0.48576844273125863
0.497912665298042
0.4906384988489048
0.4929105397645131
0.4963413445640379
0.509954799763607
0.5078837770433038
0.5148597541571894
0.5159112025448715
0.5296857785026214
0.5324794243972917
0.5456479062362782
0.547532773795529
0.5501342333712024
0.557325301701732
0.5588955128947177
0.5616247717915155
0.5667603794322773
0.5666071044725005
0.5528873275060203
0.5443492831850694
0.5312730098979098
0.5329958731615617
0.5181209332465828
0.5190249989884715
0.5138582849437854
0.516789100656563
0.5079503137413395
0.5166016263820696
0.5139204862640309
0.5220789544350575
0.5208014930946089
0.5219868621708301
0.5145424499841791
0.5178022698152132
0.5157521196506374
0.5195212971992087
0.5091329450548047
0.5144330310639084
0.5183224211615889
0.5158127503764238
0.5290696525976849
0.526459124042399
0.5384683607787464
0.5480980810316454
0.5605012459249619
0.5590613239170954
0.545015543587714
0.5291930928285128
0.523728008993942
0.5268610210213336
0.5216654839685908
0.5196770209448596
0.5248783589025782
0.4915257490399303
0.5062175738858803
0.5088526218784257
0.5086372262359655
0.5132963875257754
0.617269245677706
0.7661728987090971
0.8988531057626556
0.798218115691585
0.5597893259947214
0.5016641497226566
0.48965717987663837
0.4975860365579142
0.4922006778000688
0.49378516417531326
0.4817189787478389
0.4858510429115559
0.4970258029005553
0.5152379865279336
0.4903435159221529
0.48646694967240356
0.48378951724235025
0.4974292018264584
0.4814788988851245
0.4945217760980999
0.4922583589704604
0.4999167682416343
0.5040773334141945
0.5095934085850027
0.519403571645612
0.5153899122997737
0.515801194040231
0.529931786297882
0.5382889719649854
0.5370313566640043
0.5385822530976873
0.5563030413507037
0.5526605901476845
0.5569394710383969
0.5368211345651005
0.5236214389967335
0.5108115375868135
0.4970574488909853
0.4958035102026618
0.49228317310262515
0.5029089865154373
0.5052008432986574
0.5160510611924789
0.5058859711442858
0.5051434586662638
0.49971718832426326
0.5078479730898267
0.49813754134017196
0.5060318807016311
0.5137613228614654
0.511090805177121
0.5027632381183362
0.506427196120535
0.5135721925864014
0.5179613413556342
0.5107566944130464
0.5324761582613202
0.5292624033242604
0.5335536713787988
0.5382819717624041
0.5237528973236781
0.5195598292945445
0.5042589095391208
0.5076414479729535
0.5029113563309571
0.5032450879584369
0.48543558768075395
0.4963599594366529
0.4912263782330223
0.49958002221727293
0.4844707730882941
0.5536151543697692
0.6875981870040677
0.8871605078140028
0.8534480384850314
0.5841989053108602
0.48781220093059147
0.48433129589180196
0.4953045507458779
0.49461400136266354
0.4855595694081448
0.49570458862499933
0.4893505321405655
0.49322889442532114
0.49628310962683286
0.4938614395210921
0.493257980140446
0.49028176792800304
0.4979893862623994
0.5023656987655276
0.5024980562805591
0.49537531605067037
0.5096226862577368
0.5040044945228604
0.515086307456799
0.5110565535364655
0.536825315007055
0.5363073965651125
0.5524571511671049
0.5461585334746466
0.5617431685342795
0.5672659133641844
0.569199371716659
0.5664537848384987
0.5829295619474206
0.572944700985339
0.5593734899609843
0.5537631540035617
0.5356789331233338
0.516902403921386
0.5145288897662798
0.5127303756718986
0.5167854564636651
0.521505924316295
0.5061826714327474
0.5193870697136714
0.5132852792685331
0.5176982158736605
0.5036481189966835
0.5236585231697378
0.5067716615629727
0.5240596345230131
0.5174741028075014
0.540946306060742
0.5410800827599235
0.5617586717566284
0.549640329527006
0.5575883030531466
0.5457084473994845
0.5416439386448917
0.5342869502313433
0.5550939405194389
0.5733401892347134
0.6368417309509021
0.6985405413304128
0.7542365641325409
0.7985565109437731
0.867847895925691
0.910190393881604
0.9185725204645705
0.9712518774452178
1.0
0.8640779614007515
0.5881287962335493
0.5007871668806213
0.4364723644983986
0.42322767227408875
0.3933215270260134
0.39802163575317484
0.38568185643493075
0.39526026992078894
0.3645712809518119
0.37891962367778
0.3593555728908068
0.35712040941957107
0.34837191437393145
0.348715861525139
0.3312928684269666
0.3342829800169156
0.31736743484211016
0.32189654783472016
0.3154985810803915
0.3193800383864319
0.3188952141459868
0.32179278246420984
0.33614515635783626
0.33671830297684374
0.35722749498246337
0.36565935378918446
0.39517046513889886
0.4059964948205382
0.4308689196410874
0.4333302333950975
0.4346363975936535
0.4456962427658663
0.4486835608478924
0.43867959706944387
0.4420191478158199
0.44077094487304097
0.44053492702403785
0.439272735427385
0.4448027064043636
0.44156677051661
0.44852463688820066
0.4576114775690046
0.4487490029793294
0.4604400057031256
0.46133088233238506
0.47631104973511784
0.4783246789351313
0.4911685701995115
0.5078925347770408
0.5149483350372986
0.5058964739501548
0.5053029638623887
0.48587641803761034
0.48259745443514107
0.47033794424900766
0.46539160512263367
0.45406194480609374
0.48867755897342197
0.45969909728770125
0.4665979268785076
0.46397063470190164
0.4611148938008257
0.49172842995751154
0.626086265844806
0.8625467789812771
0.9449971680778674
0.5958233777452212
0.4230739577737651
0.4578185917272156
0.4564812076398743
0.46780697596523596
0.45918188341690724
0.46348894792638157
0.45241534218889645
0.47213227391654194
0.4601990828032368
0.46878008956406525
0.4666127967550189
0.4736307501587132
0.47376620592479285
0.4778207244818657
0.47737231965215676
0.4840054883654976
0.4798779236472647
0.5046260476672499
0.5130621564834429
0.523068406319181
0.5328212371917883
0.541943868685577
0.5516820348418919
0.5594363897435748
0.5745423073399986
0.5763013890960564
0.583303865626984
0.5745266806587719
0.562107413148006
0.5521712165220752
0.5377457803738434
0.5147049670747211
0.5141911577929121
0.48419458768588514
0.48852754027019696
0.47948016989993514
0.485545370200128
0.4794878164820089
0.48654637715487914
0.47079340019730126
0.48747297178742477
0.4846251264355944
0.49744092771099524
0.4980040037262305
0.5195806683775791
0.5279515986903001
0.5372002192417968
0.5290648428148951
0.5281693833612432
0.5199238459444329
0.5054437262388982
0.4931517030031053
0.4777528880683142
0.479128175064128
0.4739756162300804
0.4672655077932289
0.4667143001762174
0.474161837814289
0.46640370604089965
0.49682868398122365
0.6549254345354381
0.9123621489402829
1.0
0.7050722137057758
0.4244700921461554
0.4624830093886455
0.44985886314712964
0.46791344383491545
0.44959876470196714
0.45860696115440164
0.45729820161056933
0.45581622858306536
0.45422432412738667
0.46368376705716124
0.4671101043020033
0.46713336034716485
0.4641410197727468
0.470530889602179
0.47591231845324417
0.47749955182374093
0.49162955873821285
0.4890338075282493
0.5105025428193471
0.5151268595282111
0.5316347825110282
0.5352971213955054
0.5552292074810115
0.5462654923423776
0.5696718109767425
0.5640641753874532
0.5706925580091883
0.5641661633708444
0.5563856016427293
0.5260849823356946
0.5192617284786086
0.506469832449149
0.49819448997376004
0.48896157852842415
0.4850340026239118
0.4912099914454183
0.48330210928869083
0.491319392123582
0.48428567902545633
0.4916795550118052
0.49419637996363797
0.5078156447299249
0.5201665181455083
0.5503661356259281
0.5602200181953092
0.5586034250859201
0.5436154019592901
0.5433871028229776
0.5122462560070906
0.5042578982105627
0.49862560748597556
0.5030815613893439
0.4881174910034769
0.5040517625605722
0.4905904733561514
0.4921527922237005
0.49663404057669036
0.4999663242903429
0.6113774213255254
0.7970664189615226
1.0
0.9691501292671972
0.5669972293123762
0.44814429783858156
0.4620345694858205
0.47219701808634984
0.47696126025863145
0.46112522084561086
0.4733624941038209
0.46585566298789766
0.47780489043879343
0.471597247120972
0.4767353339064167
0.4690528828939285
0.4922743680247432
0.4773397847013561
0.4893352549314286
0.4854021430681404
0.4982473655125276
0.504597211478537
0.5186336397805875
0.5142346056707451
0.5255427930105059
0.5380606340399253
0.5505051257714111
0.5561062413141212
0.567361516375113
0.5859381024541627
0.5774880895018896
0.5877055888572149
0.5821339713696794
0.5739265171552697
0.5720647284144856
0.5663196555978155
0.5273442026981596
0.5238633939245279
0.5099959340029667
0.5046565056575855
0.4824718263548788
0.4954401579065702
0.48147791025629855
0.4987549901762304
0.4858902191823189
0.4932935182289224
0.49154279592276245
0.5020834587089121
0.4973660331430124
0.5185663643851927
0.5313022806082166
0.5392738789774614
0.5508620880138402
0.5406477552815556
0.5421379223710074
0.5424954890080811
0.5246877853374411
0.5036930874772348
0.4935508006981138
0.4727697272481752
0.4765032135766572
0.4654422825690533
0.4795371492679048
0.4576797440381763
0.48144968090755524
0.4837600831679329
0.4898633536576248
0.4967441181234632
0.6296181844544408
0.8629511639672897
1.0
0.9366984885434434
0.5497979964898342
0.4503417354451832
0.4323269313565121
0.4494119236961819
0.45126074233417635
0.4420755173454662
0.43360730156594174
0.44470540851520657
0.44288400090725144
0.45400261500564953
0.4498566846697045
0.4521219664870192
0.44473460405965026
0.46510631524894164
0.4513156188842718
0.461909428279802
0.460683957679384
0.4873910950481169
0.4775177780406373
0.4928537220383486
0.49386463591909957
0.5156909580234031
0.5064610872538924
0.5364028017933034
0.5410379582401383
0.5583334848427765
0.5598431150108876
0.5781240858341581
0.5722439696014746
0.5826014849882052
0.5734556934718947
0.5578703495529245
0.5661407997018284
0.5426965546044791
0.5293679099170973
0.5018116775386988
0.5012738809806697
0.4702963226011903
0.48246216134079106
0.47987681518168035
0.48307063372207465
0.4721785005405129
0.4906028497026417
0.48043217882313305
0.4909004099685532
0.4828569386625694
0.4991372728443514
0.49320517890052684
0.5181021160412583
0.5177487751985643
0.5479269301338626
0.5486081309536266
0.5528918745027493
0.5511311943472361
0.5498888936647913
0.5195442201807661
0.4833770290333305
0.4939800503195381
0.4762059176725145
0.4791638552903127
0.46953414873751875
0.48484269044062644
0.47144594959776553
0.4739085997749618
0.4769280743000464
0.49285257443476915
0.5847204767468221
0.8031976590481801
1.0
1.0
0.6399053580633475
0.4265926419942495
0.4129564990290131
0.4402784061987541
0.45503423980625496
0.4545622789233626
0.45004463327653826
0.4441670237923624
0.44329173809409694
0.4482631456941146
0.45073316593910623
0.44871800689249747
0.4568573494507147
0.45303480439090205
0.47620171385324267
0.4668513539655243
0.47803172687426354
0.46331319927510356
0.4896569710510974
0.491383795579838
0.5110649078940063
0.511749690167791
0.5363287221053563
0.5450326338905517
0.5672463520371565
0.5569322013142994
0.5784524061950089
0.5730691948110811
0.5930169043589999
0.5826131422119889
0.5890067709903852
0.5650994642170286
0.5441434136174228
0.5299970611020417
0.5261929155058643
0.5027767965581338
0.5040724919525035
0.4910082181729766
0.4903745455644505
0.49622420196149397
0.48122887094362765
0.4930643127335488
0.4717330864073568
0.49715798400919037
0.4835122809749041
0.49684803424447593
0.5000878913985802
0.5307474463882457
0.5150447439726152
0.5569977330752828
0.5566589501351402
0.5545084319414894
0.5691033863270585
0.5581694797805624
0.5208806892852473
0.5136208993696397
0.4887163079989422
0.4849114215976667
0.4737903788010689
0.485964003287806
0.4876127276710182
0.49290919596696225
0.48535781704218606
0.48287893825926587
0.4743087199016208
0.5145126763011169
0.71459709154724
1.0
1.0
1.0
0.5886379889783095
0.45334612280673214
0.4634608849754828
0.46916426912995834
0.48164091918481394
0.4680979146407457
0.4715438386791292
0.4655766758038081
0.4584989524999882
0.471888054986244
0.4843627727495015
0.47130748144708967
0.47730502593063895
0.4764226243796422
0.49086421523294915
0.5070730244346733
0.5053489068240276
0.5088251897482742
0.5082303889894649
0.5222486828800948
0.523139568645847
0.552139456100536
0.5452000508944368
0.5778374557491285
0.5760537864204653
0.5868299193645041
0.5877401121844076
0.6087611708910562
0.5920837251938635
0.6094383870983411
0.5967268401801176
0.5981365196536201
0.5814428454104139
0.5766784929906773
0.5511435126522178
0.543092431162584
0.5172209447029903
0.5004165534497107
0.49214302195370874
0.5135126069050868
0.5028936384602531
0.5001994876009385
0.49490099735568666
0.4853622612119633
0.48694451452677334
0.49969218513055746
0.49815323563596026
0.5133889251307463
0.5550123975968924
0.5429738899592057
0.5914494954226412
0.603116356755513
0.6482166685096994
0.6830257671616357
0.7813997070341314
0.8695377023774192
0.955000907415456
1.0
1.0
1.0
1.0
0.9865155805524163
0.9399477980009193
0.8834581652059977
0.8432306977545408
0.8552361207442788
0.7779244456713919
0.6123486701157486
0.44549034309545854
0.3436578924269858
0.3195287567406336
0.3035155736891445
0.27185851581440873
0.27636076372384755
0.237465642837093
0.24391335252076923
0.21893150610323214
0.22257047497680169
0.205615507233217
0.19751149743662752
0.1764868083302713
0.18312851874436417
0.168798717089716
0.17798823884728
0.1778004721695301
0.18661472047212196
0.19686630354046933
0.2351850960871543
0.26549739394999194
0.29304024950352997
0.3269161689627234
0.37172654293699103
0.4070044666477405
0.4041474747561865
0.42778637481076726
0.4214421859474885
0.4295272055092104
0.4282051926983286
0.43807480522962994
0.4337701786233363
0.4470610809094756
0.43613639092925904
0.44218843123505264
0.4592389159652635
0.4541280024087554
0.444111792178819
0.4739430282079436
0.4545949927595115
0.4712326378739819
0.46706532200315126
0.4660534854940691
0.4691300902094658
0.47611888495796995
0.47181507146487156
0.4842480103061099
0.4966937339207324
0.5218332724145057
0.531184916439644
0.5472752194427223
0.5563725532823601
0.5480300812221063
0.5401398969163584
0.5072470964795669
0.5115251813066444
0.4910435105359817
0.4889558590752873
0.46586576884761294
0.48520176484355676
0.4632974444602553
0.4838952756769924
0.4732646798909751
0.49232558600056925
0.4806328615978985
0.5849394724932875
0.8380449582190247
1.0
1.0
0.6932307514356184
0.4654488348545563
0.4634265602065322
0.4709704573928871
0.4758168546341093
0.4681781563985214
0.45722577502773953
0.4772245764665125
0.46365719751484014
0.48876989995983877
0.46664932198888376
0.49814709398111756
0.47958626175386165
0.502220692903767
0.49118237898819367
0.5143701595258767
0.5113451449926292
0.5195866152278494
0.532689972980967
0.561476119196541
0.5794599338465011
0.6126286173349736
0.6215715129663694
0.6404500819955741
0.658320098348055
0.6686103555968418
0.6862052689020464
0.6954522549761997
0.7044998787318566
0.6824431936655164
0.6722786768421903
0.6344453844177383
0.6076868258957312
0.596424331433019
0.5669954995686163
0.5499044722871267
0.548089477079996
0.5450524597601103
0.5281830796652519
0.5297647861113883
0.5390204293295442
0.5329866109862802
0.5359428327041027
0.5239431697096479
0.5381557833839916
0.5675687661818027
0.5937309257782031
0.5916289502820224
0.6023124511517917
0.6036349206960319
0.584443627271668
0.5535094910300684
0.5323531140301367
0.5223440416497129
0.5045688100166297
0.4977940065644265
0.4949643204460335
0.4941273180935336
0.48908737793773965
0.4814947740375758
0.49033115105548236
0.5024364914253774
0.5424664614506858
0.7594445232423135
1.0
1.0
0.8741436938695912
0.5051611393689821
0.4246360146612102
0.43802600438167894
0.47387885176694133
0.4713549927132165
0.45579897583555323
0.46971629360809314
0.4625209647631173
0.46384587296695584
0.46928437647867965
0.4904891128914919
0.47386806856417907
0.4864861941812725
0.49101489228201006
0.4844744071989817
0.5116258794138261
0.4994350062646875
0.52708699004107
0.518436152403443
0.549944048371193
0.5547638807686128
0.5769680984039461
0.576552076697599
0.6126145095461857
0.6033654001208567
0.6242523303743439
0.6090021350360394
0.6271848681031938
0.6294376059420566
0.6177249277191674
0.598867574504061
0.6008762075556312
0.5748918290829202
0.5518668294485588
0.5309783448004897
0.5135562742900535
0.5056616370791336
0.5050648542892295
0.48907912628312394
0.4944359767213603
0.5115298054683922
0.4999475883925645
0.5192588777166132
0.5066175703983792
0.5357869327897612
0.5144511909767324
0.5264172798242349
0.5240703363761211
0.5673688778331281
0.5451310091643916
0.5888716462888398
0.6134262154109227
0.617494884680095
0.6110757542959463
0.6142984645629495
0.607696864027772
0.6408712377277107
0.6916102499984161
0.7956382208997173
0.9158593022634094
1.0
1.0
1.0
1.0
1.0
1.0
1.0
1.0
1.0
0.9338989558809303
0.5755090478343341
0.43580628848697023
0.34981654143513313
0.35468013253668235
0.28117939714557166
0.32667343453529896
0.29184034681653925
0.3035687036402669
0.21137310387221717
0.27032564694779804
0.24638783043817516
0.1956951577791545
0.20589675458819046
0.1905176106345427
0.18033547618446005
0.19133756535242158
0.19555356767283372
0.16480582440417205
0.20405410373004287
0.20171719636644428
0.23961033637134768
0.24523010388191127
0.32125093567430235
0.31677300466070435
0.388482451108256
0.41456606406327
0.45264271110388987
0.45353186022814906
0.4795405215883986
0.495820715398282
0.4713529594618141
0.4904136966082676
0.4993023317661125
0.5023477743984598
0.4942486184102666
0.49871132517296923
0.521313781432199
0.5099911514618884
0.48682006235097813
0.49505583068543013
0.5089177678784318
0.4797539851690872
0.4999997429224604
0.507595815382158
0.49012255619191825
0.5248197925667555
0.5429061057615727
0.573700612850453
0.6028377173026834
0.595285374159888
0.5564803833659323
0.590881608674976
0.5048302142500634
0.5175811690709661
0.4984023576656497
0.5004790336159475
0.4994525883633936
0.47838862714622665
0.49440889137352323
0.49348031267026915
0.4737980881229299
0.5262902340665099
0.5163828204486378
0.7004698085870397
1.0
1.0
1.0
0.5985199676163633
0.4506596121703617
0.46531106414148515
0.4718617283817147
0.4736068846100371
0.46625086055822385
0.4678949817668981
0.4680463608276938
0.47692175084165955
0.4993284072681128
0.478548280555973
0.5087175660211863
0.4724316345151485
0.4907398082437064
0.4975895726755205
0.5306310502010037
0.5006902276238329
0.541682241610905
0.5387735906561898
0.5849486928110866
0.5807641700334747
0.6014226398437384
0.6428364120708272
0.6816637480912331
0.6819499690344272
0.6908716316704757
0.7193180831327473
0.7278371569961766
0.7172386363266249
0.6879928413575057
0.6584436151305504
0.6189678215846914
0.6233879203202106
0.5442844369496881
0.5463022949643555
0.522083284481788
0.5234130271625304
0.4692049156016587
0.4770517657876464
0.485731455093807
0.45501323929357645
0.46025463513876597
0.49478947167340676
0.4534245712683275
0.47551782551909516
0.4956365221189227
0.5049082510202798
0.4879440430266596
0.5325078344794101
0.5835535830663849
0.5957224394350525
0.5749934190017643
0.5879158409804215
0.519929786937761
0.4831320751686438
0.49478329570644225
0.4504541020307358
0.4637096196853593
0.4520275635814153
0.4352679343063145
0.4696896419435802
0.47179948544651457
0.4547512409145026
0.4927969256389666
0.5769186765884355
0.9660706497065966
1.0
1.0
0.6292075370793476
0.3766386601991344
0.3898083325613765
0.4322856775347028
0.43332405272975516
0.3961880267882436
0.3947351694839886
0.3990820876712987
0.42671598461646154
0.3916849921307716
0.39142137491846124
0.43141903270758586
0.44784596605205007
0.4107745679492396
0.48552913016068305
0.4471199739962876
0.44857697736491897
0.4628169868421602
0.492359660815264
0.5216544796567845
0.55776487327223
0.5485091770301664
0.573093926093455
0.6167785639346437
0.6025591383387267
0.6229191925193984
0.6421816018538864
0.6374695535492367
0.6593836670675227
0.623593924409365
0.6072388680068022
0.5818546315679731
0.5752308287831545
0.521555181994336
0.511984929236299
0.5123127587175255
0.45922078627296925
0.46356153902507097
0.44965425545025317
0.48410122134556516
0.45120402464584985
0.4964223128267132
0.4641121679973791
0.5088305191607241
0.49117645415314337
0.48751435030671064
0.4705712722365911
0.5020105561490988
0.49808265768871784
0.5303832656409464
0.5298096106297807
0.560638119854161
0.630611687958735
0.6117909976392448
0.5981636425469121
0.5802702951895043
0.5404350073736853
0.49723694955108355
0.5362065478859834
0.48955280444680305
0.4873687890821633
0.561881941739386
0.6516102937732706
0.7179300711318268
0.9075451011304976
0.9919077342961498
1.0
1.0
1.0
1.0
1.0
0.897173723659655
0.5129712402092796
0.379178124538526
0.38867405369588537
0.3555509531896039
0.3293064927975551
0.31904640203953083
0.3396985824790658
0.3075257258794263
0.3173221138951694
0.2963969769621377
0.2860783791494309
0.3253294914550309
0.28618888584060903
0.2669292592215038
0.262824392160997
0.2726105659471351
0.22945504082658727
0.2688965452033994
0.2737987281892519
0.27692954051700414
0.28062783050964196
0.3248990634865003
0.33851223325046725
0.3999486604988517
0.38642070332026096
0.46543113032169653
0.46958289618470817
0.47053750192369215
0.4770075759590785
0.4969117736114231
0.44867225711955455
0.49095514693718584
0.47701171850308144
0.4676099034179345
0.4714773715881102
0.45435083239109997
0.4945787037658042
0.45646713652178506
0.4446879079531529
0.4710092409457222
0.4716035106217357
0.45785058100168036
0.48136919334538575
0.4793791678528997
0.4565288009252618
0.4823945264571202
0.4900220693238932
0.5231405227004231
0.5682952681975241
0.5553682120472414
0.6223164485603375
0.6040157307160252
0.6015680262152754
0.5761921634681487
0.5381357444177689
0.49601792683033946
0.4761826794970597
0.48691791402331874
0.47511525944121924
0.4755476034945703
0.5004313730475324
0.4766168208271476
0.4800020116316136
0.5056304722090724
0.511824431935136
0.8104927463088721
1.0
1.0
1.0
0.5628251675253527
0.4099047526611502
0.4663442868116703
0.4452937263771628
0.471263327357479
0.45676286881838424
0.46324383107528266
0.4425628440050905
0.47623145483881696
0.4679876422723524
0.48417080889795017
0.46953671305011396
0.5256437465860171
0.4877554211996819
0.4946124447705964
0.5131396410560853
0.5355870249569985
0.5653710377954722
0.5654839105654426
0.6166243464979719
0.6359536769716136
0.6441455151274273
0.6917839150265296
0.7178451927502405
0.7138673671928775
0.7662427196965148
0.7442561263473497
0.7858440958795627
0.7603653292860526
0.7624899648203296
0.7381163879426126
0.7180230609009566
0.66297577752197
0.6560621344672958
0.6046169525536618
0.5700622138976184
0.5884086813144764
0.5643848085571139
0.5494742015390506
0.5430195464504666
0.555668990497786
0.5491259198453696
0.5517285693850293
0.5689302165365895
0.5833704958485565
0.5556820614271224
0.5646091327687778
0.5904583301652291
0.6007397258287483
0.5708770349811231
0.6067296250841732
0.6035569794944023
0.6531439287535622
0.6686999827179877
0.7136403056638414
0.6500371104830016
0.6642399806139918
0.6047424970944261
0.5693342233685919
0.5664176337219652
0.5449908844220426
0.5332959076569991
0.5366869716634735
0.5697217131528161
0.5201616334666479
0.5259226229865169
0.5582687777710718
0.5443451366888417
0.7386188680796073
1.0
1.0
1.0
0.5874671421587234
0.4443096066777751
0.4999565552268577
0.530886621516269
0.5077974377387926
0.5370676410717612
0.564899665306621
0.5230305813143961
0.5144439816422541
0.5558601868277946
0.4647944057516842
0.513976450003139
0.5325719699145772
0.540520769580749
0.5436869805426081
0.5986127465878853
0.5664522090014039
0.5890224121464958
0.5607509259935738
0.6168140438767363
0.6178112999234638
0.6533189100715315
0.7058534011377393
0.6757855170819387
0.7905418586927488
0.8430513730199932
0.7711874723043565
0.7525701388429218
0.7439967852919921
0.7244576553151604
0.7017830789683408
0.6400932498873081
0.62954243582278
0.5233807229311995
0.5468224435178473
0.5257099552016948
0.4937067947084731
0.5267358265828385
0.46970320105039365
0.47146135150194973
0.5247145624906135
0.4727096258709258
0.4815078824598765
0.501135517448183
0.534936094208833
0.5021859637936189
0.4863803042665994
0.5286965392863036
0.5205132693922925
0.5334944517886859
0.5568914336590552
0.5980097366260677
0.6204257137007418
0.725129434336792
0.7356819706367329
0.8292543700985417
0.9299466703605839
1.0
1.0
1.0
1.0
1.0
1.0
1.0
1.0
1.0
1.0
1.0
1.0
0.9157575525059858
0.6414979660386251
0.37561364833380023
0.2344243923211095
0.23689675543647062
0.2061151863161152
0.15234430200263094
0.16064220903097656
0.14142075506629875
0.09959127087795397
0.07184615087494146
0.10968031701071612
0.07927691708266087
0.056130590510062105
0.025460434033514633
0.034156212432916444
0.0
0.009214310274491665
0.0
0.0
0.03383935990426625
0.05161271971585091
0.05507293979119012
0.10148989189606072
0.16544972580418996
0.19570832225435258
0.2486005096515463
0.33160298058104815
0.390569813889506
0.37768407358777917
0.42849339593240776
0.4248561675039733
0.3984818659440989
0.4066216190903421
0.4674297058404244
0.42846993122091603
0.4269342752688761
0.4048204378321992
0.43877877741954185
0.4048021912112385
0.4241144174295798
0.43009557733964743
0.45511392646106896
0.4383957041055302
0.4459138828778141
0.4434489996771793
0.463623655861344
0.44553315197713894
0.44869861096051344
0.45428627548649453
0.4556391631034858
0.4754728533797937
0.46243629240853784
0.46738593351854607
0.4617045536304437
0.46415876516232324
0.44145700458777914
0.5301393757399819
0.48465584263509137
0.4976310853359669
0.4940056489215636
0.5711878546194715
0.5311433883070522
0.5680182436656759
0.5668921939355751
0.5780552840867778
0.5140047898085203
0.5004699068543986
0.4810656660179293
0.4844672522644801
0.43863368340103737
0.45408602395578407
0.44820967955369984
0.40997845422734763
0.41994506157982825
0.47033609423370015
0.49661960592951465
0.41577226102427334
0.5592635594039954
0.8829133149226915
1.0
1.0
0.9278795466920664
0.4146120828362025
0.41628091425865277
0.36305453058023174
0.432637416608849
0.3986960364879696
0.42869119833776137
0.39634394962532576
0.39051611054408025
0.4005166954502514
0.4218327915428589
0.39197379800037646
0.4110100426132501
0.41688090875595946
0.4519799573402173
0.43499730291934524
0.44097887289042664
0.46544950507266886
0.4569668819220517
0.49903944524446864
0.5034240248869285
0.5221871255148613
0.5668097532294272
0.5646234800857148
0.6005579289215927
0.6312427139218189
0.6716046658029534
0.6836173702040755
0.6813046040184678
0.7231502465111369
0.713454967104996
0.7116483664549902
0.7108510328180921
0.7145507960048627
0.6786004077872355
0.6481657491284126
0.5890645918267794
0.5830195475530344
0.5510541700385351
0.5318358578586078
0.5155237954443838
0.47534725839260084
0.47411441996382
0.48445673358046965
0.511607458241504
0.4846058268352749
0.49247966362058493
0.4876544692837239
0.5004963037858847
0.4761027698460876
0.5069751754019043
0.5000357558696316
0.5071853210685301
0.4874139398448758
0.5574843510262758
0.5414477027803825
0.5585204501532031
0.5761747855117274
0.6210891060552096
0.5803853745733594
0.598526373136717
0.5689519064535449
0.5382988257990795
0.4860116707156852
0.5049106288631442
0.4829920589707363
0.5014511148313654
0.46250199310547896
0.4203831552706661
0.4926610187308566
0.5159858560546825
0.5103621708879233
0.46986655283287826
0.5426929824442986
0.814848622538827
1.0
1.0
1.0
0.43327203499356715
0.40846672829018277
0.4030715061313262
0.5004057233560896
0.4541510592178694
0.47398692319122376
0.47197285224500857
0.5302860119269505
0.4250681654960193
0.41094042587551893
0.5409742630458351
0.506118141084951
0.5203509282244735
0.4506686179667394
0.5109112974323927
0.5579689180355243
0.5305964934471264
0.5287167114851756
0.5601230740863461
0.5924893335669037
0.6271314670215133
0.6028373584463789
0.6579558447734108
0.711318011728115
0.699264577355749
0.6815509896899791
0.7373765786370271
0.7033838155100771
0.7183314206272705
0.6987961012056078
0.6792725417941459
0.6659043359740989
0.6230484979705739
0.600690007029804
0.5440143617010051
0.541168769025026
0.5305279413519511
0.5486120593705517
0.5365722197860585
0.49530475212853764
0.5294764227142903
0.598105188178803
0.5454963500210255
0.5234611230881663
0.578629735714932
0.6072803547557151
0.5624420669526469
0.5547726634772709
0.5754375063971189
0.5607685344505611
0.5861511382654443
0.6425883454506424
0.6241028564762806
0.6684642210022969
0.6879468494236443
0.7007884182835753
0.6839830343537916
0.7002717296614352
0.7851647562230898
0.8960755544054304
0.9604542415188249
1.0
1.0
1.0
1.0
1.0
1.0
1.0
1.0
1.0
1.0
1.0
0.8366698070360925
0.4870223439209308
0.3884827214106202
0.3153575233252579
0.2918495378566735
0.22975750566122616
0.27228668929862504
0.23481301812703034
0.21496687159542663
0.20523794739312703
0.17692182574610035
0.141946221496905
0.1808933971209164
0.10727159601359189
0.13025984972461954
0.10223932786104402
0.09173593806748075
0.05145704216147173
0.08316795621980164
0.07206004774692412
0.0776277462229749
0.09708452613119807
0.161739758229183
0.20324510662963977
0.23551710649782948
0.3035017615737356
0.35709385953271516
0.41369317741496586
0.41451715682777046
0.4457890187828225
0.4597639251194837
0.476329787755267
0.4757906298980412
0.46506483022641837
0.4531073053745033
0.45998560329407817
0.44951833799696006
0.46593548117573463
0.49235064062283385
0.4740550443872863
0.4704407456515581
0.48625566924720304
0.4751843470944112
0.5096205548981587
0.4461580821780341
0.5091212304213584
0.5556895193681072
0.5032214349766995
0.5137568437894483
0.505633128336545
0.5724316136799302
0.5319204736088576
0.5727765201840505
0.6362325698753905
0.5964484374787535
0.5941371449073893
0.6106461442449614
0.5321470164773328
0.4938491548250538
0.46684659380120896
0.5042254265796509
0.5069669135266472
0.49038600040660824
0.48040208360452025
0.46745006880433476
0.46927228071446087
0.4902558077659772
0.669095532597361
1.0
1.0
1.0
0.6046801193961457
0.3540569557611125
0.40157522015978114
0.45989713345182714
0.47402035173267143
0.44702030390643416
0.481331790043685
0.43565876431056283
0.4581883900874516
0.44216943534714004
0.48989619693408804
0.46913403260841946
0.48024386008987696
0.4694356868548926
0.5221914982499186
0.5035993617513774
0.4968762762109272
0.5021137307071137
0.5802106740212535
0.6258520069827118
0.6014906961343327
0.6350769684034752
0.6800870352379155
0.7088441802228537
0.7218818589413594
0.7340666660771807
0.7463064135699138
0.7729551731697025
0.7257264588734429
0.6873510643781592
0.6548823556246779
0.6429382215429545
0.5621214566595292
0.5228728098070635
0.514143762523485
0.507991362444056
0.4686472825203783
0.47960121466126654
0.48122641688632345
0.5253965724879842
0.4642970222768879
0.4770542098038103
0.4758376199427742
0.48703628295075096
0.48571666913910205
0.4712981032870294
0.4681404008653368
0.48937006404589695
0.5017496884681878
0.5653261495179518
0.5334917527233679
0.5592017011713271
0.6079844935822895
0.593246682974432
0.5743299474610163
0.5559650529229921
0.5495214677988958
0.4737720284928237
0.47541651835123816
0.44184048100936757
0.4555002662722214
0.4562055146050746
0.45233130842469593
0.4247049296534423
0.446379435870365
0.45168226832302383
0.5000449926373157
0.784571824783208
1.0
1.0
0.9522108439853607
0.4008083361703124
0.39095472613919224
0.39573952807972124
0.41236721546458377
0.39734691182763504
0.39227825650607145
0.4171132159177768
0.48327480683552626
0.4417103738993712
0.4261529389029416
0.43551508496063757
0.4392154281634261
0.4380123359318063
0.44193605122073676
0.46559105450358906
0.4855438217747789
0.4817906782582825
0.5226150810274841
0.5423905649030182
0.5136981529902711
0.5731898520995984
0.6105234079543267
0.6114494739592125
0.6371301985380724
0.634689933419326
0.6207755336946704
0.6319096123068235
0.6307226034685318
0.6110423470721521
0.6026052976900171
0.5346112948230354
0.5329137333342873
0.47479530357303623
0.5264335177999645
0.4602450099233978
0.46690448837234155
0.4857047462274406
0.4719992894114073
0.44698281046531607
0.48518802776720216
0.4549131405378466
0.47369962168569346
0.5081585425206661
0.4763951247338348
0.5044492429151927
0.47945857178069645
0.49795684498575704
0.4965529039477943
0.5114505730835327
0.5459371950591678
0.5647903865577748
0.5890495931074431
0.5927186409241058
0.5660311286990909
0.5672322766178192
0.5195379658783753
0.5151117610204325
0.5466427447471158
0.6142573516703842
0.7100364827977899
0.9147840252113063
0.9964338053662752
1.0
1.0
1.0
1.0
1.0
1.0
1.0
1.0
0.6667485660358659
0.42691514313599066
0.35151351343537973
0.2965103456310465
0.27980548247680026
0.296596582273745
0.2792505280079344
0.2541589416433539
0.25620408528366345
0.2254846028376341
0.19934181153621613
0.21465948765104695
0.1610592820452002
0.16754472520057817
0.13955484335712848
0.16518469378516717
0.13162120441594646
0.13324512351989276
0.09768556443583173
0.1473209605512134
0.14145153576784925
0.18325201391290008
0.17690887793773186
0.22908210862164174
0.23999011316717583
0.3016677843381066
0.3325899329254839
0.40147134389264216
0.4184807162201638
0.45677291397655795
0.4660251668156502
0.44974578104398494
0.462644596341363
0.46697306302882957
0.47331070388711893
0.4564546809661062
0.45540003560343656
0.4553086668815867
0.46874391210015026
0.4833192821469858
0.49010701461623896
0.48852600849585465
0.4951052590765773
0.493582434372161
0.4965661884307605
0.5174448406944879
0.5092414033121168
0.527350312762654
0.5579022023162448
0.5878448731988021
0.5935263355643728
0.606422370450735
0.6281566304200694
0.6292560919346654
0.5997697951671596
0.5660492543789425
0.552737996552583
0.538677870072066
0.5132184813698535
0.5603093833399276
0.5340855802020068
0.5621982958854193
0.5395326730459681
0.5625633296779029
0.5566610470823548
0.7833261962232448
1.0
1.0
1.0
0.5206509180916562
0.48761530480428633
0.519519681707085
0.5163202239166624
0.5300365280973038
0.50297831405578
0.5152636789159195
0.5288975097246829
0.518801380833881
0.5200757424443802
0.537743327216375
0.5503618970242768
0.5540685855969241
0.566402543232534
0.535481437412696
0.6069091402263855
0.5885284392921925
0.6305875879369187
0.6296341325978292
0.6722029026466354
0.6910338025802615
0.7207465974559988
0.7119134818986463
0.7592650355327372
0.752161673149147
0.7865306888280118
0.753095732865166
0.768479945097482
0.7199914022228384
0.705705072994622
0.6452868560537073
0.6272920686109258
0.5804369699669113
0.5821222418974245
0.5411096068478409
0.5570752871954741
0.5395280779348358
0.5505706845502855
0.5507724785525278
0.5562253994069497
0.5673667156137838
0.5575539251820347
0.5401087311767067
0.5434590844898678
0.5753085540237839
0.5902467892586538
0.6173806880656725
0.6315872194840011
0.648186910486858
0.7667793203689399
0.7944147530584822
0.7153670412336156
0.6307376186586205
0.5229857778641739
0.53133151555706
0.49045062609927326
0.553801367505477
0.4784404504582307
0.4813240604532115
0.5047309423705105
0.4904744150816794
0.5306070014377071
0.5147956308597272
0.6498738820757108
0.998230714976302
1.0
1.0
0.5076490551468885
0.47525220505583876
0.501528987665479
0.49069165883112464
0.4784826372909342
0.47832633147983206
0.4979635729672542
0.48772131613690906
0.5007911080491838
0.5229030470799325
0.5300549017034626
0.5219653496155761
0.5472784957989296
0.5450555608268249
0.5570757753772916
0.5607848053383457
0.5558373304436752
0.5777325124345717
0.596432688509885
0.6409530540989695
0.6400038088913379
0.6780517189239557
0.6621641281842023
0.6790377413630115
0.6702606587875556
0.703546340062889
0.6834248975014271
0.6816073595145837
0.6241777192820799
0.63111931414213
0.5768886621127689
0.5909402489789851
0.551962623693824
0.5508786948928361
0.509071582089582
0.5572242343009606
0.5217108558308922
0.510418339279911
0.5088973511177582
0.5409707196827291
0.5175168212635781
0.5337072197331642
0.5311309360386831
0.5600301037809198
0.54767062294599
0.5635280404701903
0.584303957439434
0.6063240481740934
0.6334927528088249
0.6706972816659574
0.6591125842063132
0.6569050568214843
0.6292637470321237
0.5830159250730957
0.5700446504630399
0.5200758197389617
0.5231152713467868
0.5174263584137613
0.5221011878111297
0.5062706311751729
0.5296238802903585
0.5110897127021256
0.5171202808069364
0.5579547679871126
0.8632529140721932
1.0
1.0
1.0
0.9705427437245329
0.5911985380816303
0.48861880761554033
0.489398031270538
0.47956339249729824
0.47278477861536483
0.45189969889562437
0.4786534374090511
0.4409100086569788
0.4893572854740903
0.4641651214790037
0.5177980300971056
0.48677967829317864
0.5000218308900901
0.4530850903157487
0.48458508715799714
0.4806041603108451
0.5115782722055169
0.4884720854227614
0.5532478495976273
0.5377632987859363
0.552857517261245
0.5395057380180686
0.5704230991874931
0.5526833834443929
0.6176727929703426
0.6269808224913485
0.5831978885338666
0.6027134108712956
0.6362093079736513
0.67512911140417
0.6241345050371118
0.6090694454909616
0.6160429111238825
0.6052656153900995
0.5295768828447784
0.5035663868803436
0.5221441423683106
0.529554380401119
0.5328491389668111
0.557329167988048
0.5088855430228423
0.5336889662728133
0.49840939708266657
0.5170907041454224
0.4772936741000932
0.508232245428563
0.5234067722276794
0.5696708815478904
0.513061104085421
0.5108331027406288
0.5366420229157329
0.5572176047179604
0.5707981620986401
0.5884579489756193
0.6451002938634777
0.6163487091686203
0.6413414381725454
0.6345388187596255
0.6167943527141527
0.5257567338351308
0.5386753459361842
0.471967882371113
0.5315396918951171
0.488227128694782
0.5417048154711612
0.46087303389342216
0.4865791409792963
0.4636363904823554
0.5291407645939322
0.6325073179075904
1.0
1.0
1.0
0.8052558708619688
0.39019672134220446
0.41306006560948505
0.4321060261872153
0.48692608173175556
0.4499533381549431
0.4820668656564557
0.46833840204760013
0.48420815815693646
0.4567675708581983
0.5040197612214822
0.47845712144024566
0.49143516565031914
0.46856145545125766
0.49191552263910976
0.4716216587342309
0.5266597131516384
0.5089531530357775
0.5260273569626019
0.5437445382635129
0.561831502611513
0.5731356152470892
0.626153061767581
0.634377359601905
0.6618129993372321
0.6766674302046215
0.6670341642367325
0.6817562041691294
0.6755150422111261
0.678083333459609
0.6535304337714094
0.6704195217126278
0.6169610405652323
0.5933890938369564
0.5411734122482191
0.5289316357683462
0.4840463408944219
0.5007820992055313
0.4695592242718106
0.48729071656917033
0.467384232377608
0.4889492676071844
0.46696022809708176
0.4964403398286278
0.5118115103603038
0.5337354995977382
0.4972171276098304
0.5387460556503185
0.5559630702849498
0.5506718790274994
0.5440490158110772
0.5814680908018323
0.5933173314574481
0.6162500044255262
0.5935493435985869
0.6062880406960173
0.6092601739320698
0.5419047554450268
0.5223575304278947
0.4898758915307419
0.47101192735585923
0.4479922698116889
0.4587478199265506
0.45283509136039185
0.4814964066755474
0.4584727223394055
0.48590185824625964
0.4819294352784479
0.6043238474433023
0.9517432826462346
1.0
1.0
1.0
0.42826817755106783
0.38189807251394764
0.4415996739214824
0.49051913084720616
0.4469025604686642
0.44580404755954534
0.45421209972932985
0.4449495341773142
0.46259283687404595
0.4546981680541952
0.4530260594805401
0.45489609014697746
0.4908789474871593
0.4586541073605221
0.5025969883642947
0.4695414559613109
0.5162689266392124
0.49575410531154196
0.5400591219013042
0.5361673090184078
0.6173084575434057
0.5787707085441844
0.5936638789266
0.6506450377631545
0.6447807480709786
0.663335359442006
0.6814491161385388
0.6732145984349367
0.685609657048502
