MLII
0.5
0.36510184810468094
0.41864899701266295
1.0
0.5
1.0
0.4325509240523405
0.5264836335363636
0.2496558527111114
0.33318748965718725
0.05351538465299903
0.3758330904012201
0.24840027261753175
0.356700393812701
0.3627335866068903
0.49866518222816236
0.9207738350763357
1.0
1.0
1.0
1.0
1.0
1.0
0.9521555867058418
0.5595817435423102
0.1863246135904833
0.18393438180091568
0.0
0.01859207173651072
0.0
0.0
0.0
0.0
0.09068535663861192
0.23219136771633075
0.27986325866315986
0.32913058469650747
0.33514134246153304
0.3409670033973109
0.37985112767656476
0.400654446366221
0.4147166478801515
0.4170947726768809
0.4253079786462922
0.42545497983019515
0.4404436667754382
0.43971081835255055
0.4628353763983363
0.470543709987892
0.4888754485050753
0.5
0.515192527217358
0.5
0.5157692030743368
0.5
0.5092119010592188
0.4960041592303467
0.5070130904191145
0.49194235886011367
0.49084013449951513
0.4944249352608372
0.4735261401785146
0.48813307972708236
0.48038304600547743
0.4593808198357919
0.43703527905361705
0.44972392659183474
0.4307036872383575
0.5045314764635955
0.4834304485476114
0.5138642362732098
0.4825683116910559
0.5325315578283221
0.4816574590430524
0.5661449996183341
0.4753187265871418
0.5675900679380211
0.43925774720131716
0.48858587715339263
0.3940588711492514
0.49044701602905294
0.41934930749362087
0.47236970333129824
0.6083775284063706
1.0
1.0
1.0
1.0
1.0
1.0
0.571307989012723
0.3539248294048914
0.18080721874902936
0.15193509958231238
0.0054390450547522565
0.038413022773503155
0.0
0.0
0.0
0.0
0.0
0.0
0.0
0.0
0.0
0.11332209206627612
0.1491538318631171
0.1765238861701237
0.16641225453468667
0.21753012757732787
0.2372699557984467
0.28700569685710603
0.3086248139426503
0.3449716302516707
0.36711939766201207
0.3738052400885095
0.40694394084913854
0.42548195734136307
0.44708542207787527
0.4381697609354241
0.4577621121525931
0.44433529948211853
0.44529959205599434
0.4379799155898862
0.4476542059121032
0.43144486878310884
0.46555463786011736
0.44149101788946654
0.4502758373218486
0.43331382460079454
0.47172781134187264
0.47021028247409485
0.48618119501172535
0.47558669999860015
0.5058054883316299
0.4764659034845681
0.49107415667758636
0.4790675401288008
0.478122197802188
0.4866348688057073
0.461944595608908
0.4691709888086512
0.46122755868085064
0.47433648155937647
0.45246744076034195
0.46097845009836325
0.41823388199527967
0.4678181466584542
0.44309798013538026
0.501933461168971
0.4819025257146481
0.5253291958735031
0.48929851595064877
0.5137680777351834
0.4709865644229446
0.4936492101276394
0.4835321764234317
0.5288340591998212
0.4905649475206032
0.511869652269629
0.7169923925075621
1.0
1.0
1.0
1.0
1.0
1.0
0.5261234545417757
0.4325509240523405
0.32612656313789484
0.3390148052544368
0.25705037406264875
0.28770940335051237
0.18905665900549992
0.21278985677318102
0.1814669900586295
0.20089595975708816
0.1784750282745943
0.2020634215748595
0.1557241621952313
0.19215721497629135
0.18996918038722885
0.23368544659808532
0.20427386322651708
0.23129173334952294
0.228553618109348
0.2504758580035903
0.2713334903961735
0.28450745811812544
0.2971611858668942
0.3016227662309569
0.3210489672912849
0.31622376182421397
0.35737916607230547
0.35012520590522794
0.40884875226924944
0.39691979614272943
0.4290121083581583
0.42289015720951173
0.435123925134278
0.41365876068021745
0.43296881364043693
0.41302106012283624
0.4245704515553338
0.4111461992471055
0.42743460719854476
0.40736496633484903
0.438602660087993
0.42655750704003437
0.44466448241432877
0.42419405594330983
0.43747540969123355
0.4281752974066394
0.5123535514718575
0.3738005350968532
0.0
0.0
0.0
0.0
0.0
0.0
0.05839187068310166
0.1092384392375533
0.1262791939415926
0.21284855326757132
0.2909153812807848
0.4087955784733873
0.4373193674420146
0.4993131201265609
0.48975294666654745
0.5313479812671588
0.5197896833037494
0.5368840325323692
0.5298841324926402
0.5524644131369388
0.5782880173594667
0.6074353829892306
0.6209634309099515
0.6481607984396927
0.6595185529202264
0.6903975072636294
0.722502329895646
0.7286381801468925
0.766746815808293
0.7728927568093544
0.7853846307741637
0.7767450036491697
0.7774440260926856
0.7396459094799146
0.7336806122152821
0.6895245309777347
0.6764877160711633
0.6179704701217186
0.5887454688873371
0.559540561783323
0.5431993346814876
0.5075987873804082
0.5028259978217131
0.4786004574242278
0.4702087268434805
0.46151113105975955
0.46031623902001517
0.4634165095696825
0.45087089920565654
0.45568465120714674
0.44558812595350117
0.4644479384620393
0.4643116420957288
0.4732513632904382
0.45968661807779093
0.4768528219566973
0.43945870841526286
0.4446707597419698
0.42021369184872215
0.4357162277841852
0.4055091409030556
0.42079136385087257
0.40285509765065697
0.42158939199072726
0.41452543229572336
0.4297416618317961
0.41615250665404807
0.43526434638287564
0.42116889339568353
0.4470272780758481
0.4405806945301112
0.4422588053813404
0.4523923277576916
0.4489992829573386
0.4489785210371108
0.4325509240523405
0.4270142677025704
0.44203522181103716
0.4506274929212335
0.46360207362448236
0.483800600967387
0.4742287707481879
0.5583297872045871
0.7789093929537078
1.0
1.0
1.0
1.0
0.7339921031414962
0.5250268652005607
0.4634039830189144
0.4109075080741242
0.39067201885988967
0.36845849515101137
0.3533838553622405
0.33680617814803804
0.3400766117259305
0.3357212420418015
0.34544042872960834
0.3520934295056123
0.33453211608474576
0.3361632812772682
0.33577041212513814
0.3549106072677034
0.3433183985125333
0.3578136583205156
0.34838380974612504
0.36961266789831704
0.3601223111104635
0.3854074925956405
0.36413787740002757
0.39554749918439364
0.3782860358800616
0.39873781646302753
0.4004348914029521
0.43956405763025375
0.44514437892855574
0.47992605115586606
0.4846668310835193
0.511563292173435
0.511865668991182
0.5199378553878123
0.5225206811494013
0.5398405687146839
0.5327935207604984
0.5333562190100045
0.5369595349051938
0.5473868156717027
0.5645318975413554
0.5599402526110344
0.5702301248435476
0.5534520263783119
0.5561937730981704
0.5525975202096827
0.5587169436436819
0.5520152942890241
0.5671458943469958
0.5498556586178633
0.5554091259270816
0.541961710290059
0.5598592229200169
0.5503823043795155
0.57205427055605
0.5597818574015656
0.5860600841068562
0.5748881370186388
0.6002325094345602
0.582139101692078
0.5938389653386914
0.5777997165430381
0.5983768045206606
0.5823124907589936
0.5901372949376775
0.5842122586355747
0.578953534708484
0.5920802745689935
0.592553889590217
0.7320423082638365
0.9642105481483203
1.0
1.0
1.0
1.0
0.7904769560186482
0.6115215877798406
0.563835734910085
0.5248421786703996
0.5215005121910451
0.47647959217275443
0.46802842652826077
0.4311045784682815
0.4250403119628844
0.3920137475528481
0.39161075288140557
0.37928200753566144
0.3819450443735458
0.36986221092016625
0.38362825408083234
0.3828109121879044
0.40055878251832766
0.39988460038325896
0.4038911689065444
0.4157196680348026
0.4213370555124227
0.4463505020417532
0.44817613051800953
0.46846764778700356
0.46864009266168755
0.496891916835278
0.5019119034084125
0.5345406620068147
0.5299653788050331
0.5586637697894374
0.5437879788088614
0.5618422382746109
0.539351192005797
0.5702294627690938
0.5598290269975159
0.5768697683486435
0.5674490759476595
0.5705917484085231
0.5759293135629944
0.5816744218444327
0.5748812937697315
0.571246558258852
0.5709439509409463
0.5547670296816168
0.5707570384965143
0.5555483517238824
0.5719862128273322
0.5606733867190435
0.5718977195439898
0.5537459043446492
0.5860480898526261
0.5642939539025241
0.586904941942613
0.5670119701829525
0.5897894981413676
0.571552997624592
0.5914397809099501
0.5869389083609701
0.5907054830571548
0.5828648844684289
0.5830946856115655
0.5595029538631149
0.5729784183397812
0.5578174073942239
0.5687075809798848
0.5633013448440837
0.5720357594353882
0.5826332184525191
0.5850338141659827
0.6754650599895579
0.879451125481072
1.0
1.0
1.0
1.0
0.8021982809445394
0.6172136339314939
0.5658134508035875
0.5120446252005155
0.5067351347761406
0.4700220909641212
0.4731377487124223
0.4466207547909792
0.4451978951195513
0.4223255791179872
0.41593516329409186
0.4043538768866279
0.419824651643082
0.42237858155679797
0.4412709375136698
0.4293507836983461
0.43812751004483264
0.4380455082982313
0.4460208259723405
0.4604053759530629
0.46043949166016257
0.4757042920787297
0.46552668634463645
0.4685909462858639
0.4693210272409388
0.4936825377286843
0.4924827097795511
0.5282262253372587
0.5203532711230007
0.5445660322694942
0.5368227515322829
0.5650736895357641
0.5625977003563916
0.580075731340058
0.5816939291039231
0.5919921323445492
0.5802834370984005
0.6008747693295844
0.5970120532154539
0.6066723136503331
0.5947967578236303
0.5936588388906665
0.5812223582855629
0.5901337748228819
0.5985166118703387
0.5766555113445684
0.5791403227619808
0.566655136856724
0.5703080248380026
0.5631664384417586
0.575317094336145
0.5669385920044379
0.5862377448901366
0.5783048943774277
0.5974774461738199
0.5898039932648594
0.6116472197125408
0.6046000715952468
0.6168127197805743
0.6051722073233115
0.61489197683349
0.6010353279385778
0.6062669814540523
0.5910954161339188
0.600315146049524
0.5882890266815444
0.5674986130467219
0.5682566607721892
0.5546755508927225
0.5688596681450798
0.5569445461039293
0.559362845871616
0.5524075231377841
0.5731491716453445
0.5639503105030577
0.5946040537178445
0.58016672584716
0.6071687101677923
0.5782438353743985
0.5917393204982676
0.5572118953390318
0.5810217937956302
0.5613355903978792
0.5740366362485011
0.5410868659282769
0.5617207676708208
0.536078571683013
0.5454554751815618
0.544349259723673
0.555708764301353
0.5590474284260492
0.5662596662191319
0.5694774325955273
0.5789891813513746
0.6079058194595086
0.7892489707049339
1.0
1.0
1.0
1.0
0.8612491206963518
0.5967650560703519
0.5279958369352737
0.4599385574026453
0.46595667429583676
0.419909373169219
0.4404384554647941
0.40961642649452984
0.41973166630474656
0.39610489928736314
0.4099060226195276
0.39682756976348943
0.39796428837268194
0.3887516246709509
0.40429098483420434
0.40544603265757073
0.411400542249824
0.40879314026074465
0.40731003508341396
0.4002015358084933
0.3917547981840594
0.40351961271603826
0.39673544042171194
0.41490961988564495
0.4018337388941928
0.4052746662715386
0.4104298362605654
0.4318685816508011
0.4290528334249073
0.46195748913563356
0.4748499273753519
0.5
0.494929072023257
0.5298220695244265
0.5261462795087823
0.5431732704323439
0.5299028448061072
0.5358614919263736
0.5294157284689244
0.5299840232929774
0.5197967708659146
0.5164813688455568
0.5156158042819461
0.5109735161801156
0.5139610718377117
0.5132205395491531
0.5241089772261998
0.516313626499614
0.5407460183619579
0.5222605519982817
0.5384230220218924
0.5329007537996274
0.545268102689926
0.5456932730137449
0.5437702216211984
0.5258515613409678
0.5344395556754542
0.5281348631539653
0.5317027944135955
0.5067429256882898
0.520533713509735
0.513740022541024
0.5323095144984761
0.5285858138146824
0.5366810204770536
0.5442586731837739
0.5358125353378458
0.5539241945580604
0.5383327024755145
0.5660115509249894
0.5408765575170273
0.5586191509524752
0.5516822252909573
0.5642637169564488
0.5382255016005095
0.6574136464143701
0.8623839166715527
1.0
1.0
1.0
0.9063392600441682
0.6116510794856949
0.5108658148103637
0.4919248152542912
0.47105015583792004
0.4582018068917172
0.46046622111312185
0.4511310457832506
0.44065440306662873
0.4341124223852636
0.42884548961110286
0.40897993376867187
0.4072407003374786
0.4054631747910328
0.4081802468919501
0.4078607129957514
0.41519884429756804
0.39264785769595256
0.4022615421531214
0.39489820073656895
0.425314568632559
0.4143779948335995
0.4355415509224515
0.43388013371033846
0.46150818273517047
0.475844309949363
0.5057152003134007
0.5143047209981568
0.5428604833673513
0.5310203646752729
0.551931812448619
0.551274202794799
0.5615616670998743
0.5621829107801053
0.5494047127796016
0.5523670657142113
0.5429732068667696
0.5574807291751551
0.5511362173960408
0.5626868078801032
0.5610037537067017
0.5769689015028705
0.5696208570788112
0.5961743304456101
0.5892310231762126
0.6087131743319594
0.5860326145615846
0.605011645982978
0.5759899789239273
0.592011351920793
0.568045831152449
0.578686126972703
0.5618649820749131
0.5549102690395524
0.5425146994226704
0.5578899618962863
0.5533285794001499
0.5643631568353175
0.5616896833079823
0.5763895578192073
0.5797804351846306
0.5835047791231877
0.5929454910742659
0.5827732235593285
0.603373191624984
0.581719284611078
0.595653534225753
0.5716446570204574
0.6568038181151814
0.8659175797626915
1.0
1.0
1.0
0.9911508634505886
0.664321985456408
0.5429466481533602
0.5061330258139647
0.4724738172751669
0.46648168404626034
0.446176209578403
0.4547017769397315
0.440480401627042
0.4319849323637103
0.4279917750852231
0.40760226248885745
0.41443173186396765
0.4001066052154112
0.4068874939675312
0.3981003242414619
0.40359561679266304
0.39795689109800686
0.41154973677959755
0.40206415299529796
0.42242186772710866
0.4146800818596776
0.4431880307708048
0.4409903472336147
0.48619501623243344
0.49899110191997514
0.5419815746791571
0.5207722561658035
0.5427635686824129
0.539449838799802
0.5620095941228479
0.5482727282616902
0.5592683025579828
0.5474500193631101
0.5383377646524238
0.539597303128944
0.5312416483164817
0.5427825514421765
0.5359395684365932
0.535126705345166
0.5432346683060293
0.5648500524645448
0.5664179032170031
0.5615406267112768
0.5491181622157046
0.556832725401501
0.5419143805876624
0.5465515666327995
0.5243446021448147
0.5414044163796066
0.523364148689619
0.528626203631704
0.5232156416732938
0.5448323933161967
0.5368444151697994
0.5376327628893587
0.5371794485760244
0.5473602593963205
0.5490632726859639
0.5505332674539327
0.5478647378357475
0.5540599989662949
0.5463646370282469
0.5352427969311009
0.5480326731542283
0.5391030233654365
0.556231810362862
0.5391267666671589
0.5506204497906845
0.5307329454781947
0.5493876384013354
0.5294174443504587
0.6940736856256399
0.9459066204571208
1.0
1.0
1.0
0.8272178502980202
0.5631080430799191
0.4846229359042179
0.4428877504626974
0.41702673462052253
0.40278957374673097
0.38621319942447974
0.38337166231113573
0.358389633516941
0.35571343709572545
0.3666922915677791
0.38042805133604685
0.37548510780801253
0.3726845515839349
0.3806178669019009
0.38163474985094004
0.3891152755534996
0.3891357800875989
0.40783851123697995
0.39369494620774637
0.40729521920288647
0.3981838896904105
0.4304338259179
0.42966878752719717
0.4627747400135197
0.4452072326486444
0.4681553587614675
0.48158221864770717
0.4983949151627005
0.5015001477538592
0.51689111294833
0.5062712834224472
0.5237298479188321
0.5227340293873156
0.5288068436356922
0.5238949676548119
0.5131294315789963
0.5136560064365917
0.5055066571731587
0.5150943381742443
0.48607058320799224
0.49717420026746756
0.4766183103704692
0.49492232069780356
0.48120481695166434
0.49928757296119264
0.4836740556434358
0.5107574593239008
0.49415931494657955
0.5188798758261729
0.5124691435287955
0.5367803799646322
0.5172477618041617
0.5440871247327161
0.5211155020842638
0.5274956383857586
0.5112864589746576
0.5032525938772762
0.4978195494063612
0.4934587479399003
0.47991302270023917
0.48090814564177764
0.47458656123121756
0.47657896005477396
0.48485697756656787
0.4648227930267412
0.47438778083045624
0.4709070757307295
0.49540048150337623
0.4963132058520257
0.5239937632218167
0.5109029333748021
0.5200706542593425
0.5035317267148764
0.5134848081037311
0.4852141099526099
0.4984468411654744
0.48332890382985905
0.4940770995531188
0.4814006346948309
0.4913078654820763
0.484605488218245
0.48883527330415066
0.49460483491999063
0.5637999282387927
0.7897434956452608
1.0
1.0
1.0
1.0
0.8815958646977039
0.6112954343496658
0.5105549271250592
0.4468467762539775
0.40689726255483427
0.3952153249391954
0.36861580882213785
0.3735056757532069
0.3486586829937756
0.34938454843200656
0.31936732353157343
0.3285306157828285
0.3186103392882555
0.32872721307622027
0.323615497908918
0.32582954506583
0.3209201782046832
0.33798657896073425
0.34215028405754616
0.36019529758468793
0.3589543588476305
0.3575108496888171
0.36862016891099614
0.3530551511984804
0.382752878758059
0.3670491271541527
0.3897190402568199
0.385136132755341
0.40282392698455566
0.407782006884879
0.4368841713342356
0.44639471447560697
0.46621798206478415
0.46974135637765
0.4908931653844538
0.47737951376986326
0.5083522787494822
0.49081621648214346
0.5037813678808185
0.47977793095898064
0.4835253140603103
0.46282697023968966
0.4632464324245694
0.46173992043917467
0.4631777845709125
0.45864730959059347
0.4565563750419169
0.4569530241894265
0.46120433894389895
0.4696209885338667
0.4724792986460538
0.48502162609686134
0.46531543810099957
0.4831374630408566
0.4724228742748576
0.4961022681585202
0.47838589936485587
0.48634555510999417
0.45928688499471937
0.4663266340143478
0.4513277663437235
0.4718387502755916
0.45108872292855073
0.4662825823407564
0.43395364143471904
0.4471767398139588
0.44306238680382687
0.4568002276274112
0.45785317264379854
0.4667874731020361
0.46668138504053863
0.47555567528201986
0.4787197074876418
0.4831184291052099
0.4934528971913907
0.48545264455427395
0.507784540143021
0.48291840119106955
0.6024066241653597
0.8318856696664003
1.0
1.0
1.0
1.0
0.7709441382000428
0.5140264850303776
0.4511319692130244
0.3977425406348588
0.3940157772068337
0.3683385139772432
0.3538748251363969
0.35061647492738884
0.34831839606349224
0.3457198471685231
0.3405706405280201
0.3295109004372586
0.33084882339286875
0.33043534340214614
0.32388559015797835
0.33103131005683245
0.32668129192921197
0.3276650074695862
0.319479566958042
0.34058506515198983
0.31203393030203863
0.3353599879005754
0.31147331044346915
0.34846306320045395
0.34159693320604073
0.35962466173110536
0.3504023781668287
0.3800901636756181
0.39076283657910443
0.4338460239917361
0.4407805243416685
0.4777388997289963
0.4831294795532573
0.4907132866565263
0.481668794111653
0.4795225315359854
0.4778512243455918
0.47867541456422236
0.4732880804568234
0.4588520642670155
0.4672752635035639
0.45515617079801735
0.47420668758336654
0.46773423918426416
0.47744071683843003
0.4793268269830183
0.49922668783384533
0.49585113262716013
0.5206576879845667
0.5145591260806298
0.5356363609228472
0.5102558100081456
0.5249515558774955
0.4951227881719424
0.499078245407057
0.4877449449718977
0.4767881292723232
0.47181117243428244
0.47011876830107846
0.47935315054723027
0.48066963196498325
0.4808036018794186
0.4845310088227793
0.49459135869659343
0.4829780588539325
0.5025411979801737
0.4749347607679438
0.5076514870091656
0.5049640674944202
0.5155505024156574
0.5046227299271224
0.5156994199126739
0.49578644674553407
0.5123609958665017
0.4834752564674843
0.5064817696066493
0.5238088117936954
0.7376122817907601
0.9704780556748762
1.0
1.0
1.0
0.9499485974669998
0.6182599138888321
0.48717289656699514
0.4323131354710255
0.41047336658351974
0.38711067504958213
0.39171529880781936
0.369626177652577
0.38286249156793073
0.3464938009591208
0.3529829160657549
0.31763241995682256
0.3361412810939991
0.30132163685718805
0.3112720445945565
0.2868303334110963
0.3063840108026061
0.2873983367514593
0.3091173987283071
0.30635420506385913
0.3311646954204151
0.319840081721403
0.3434350366121833
0.33642547186862665
0.35624205442834
0.3594961762055707
0.373314708070074
0.39138031901423354
0.41499030847542284
0.429499457429666
0.4474526809405789
0.4581785910159019
0.4728817978928458
0.4796457536219812
0.47055196646680403
0.48845714330103346
0.4597714032568449
0.47213867033515566
0.473006231247027
0.49187505835029965
0.4677984755236137
0.5003390720541491
0.4703299840792269
0.4974102696426746
0.4834434789770582
0.5123399698376037
0.5120953017198235
0.5126777987761357
0.5100303621594833
0.5113177293843021
0.4998944289357275
0.5009915787481857
0.48416562665888563
0.4886581111390398
0.48714649584125613
0.4753871724747574
0.47820236423064877
0.46694751861308414
0.48289370760597655
0.4690643505547625
0.4801586192948967
0.47221966206828236
0.5014738946860869
0.49933593066214577
0.519014760817608
0.5083406136100235
0.5277447082534716
0.5205057235269618
0.5279092538389626
0.5053125118740744
0.5127945660665307
0.4972179608321953
0.5132523771069052
0.48583025888968245
0.48754614545308106
0.4658716452050675
0.4709678820952018
0.47916252120913594
0.46744746994995384
0.49281087390910666
0.48559582684408314
0.49788680648806893
0.5077346847989594
0.5364946514024478
0.5220893910331803
0.6988333799636761
0.9397897500946908
1.0
1.0
1.0
1.0
0.6558401295694514
0.5129151480284186
0.4296087069608168
0.40886180699449054
0.38563826117328404
0.3646178569824662
0.36011539895665945
0.3512293698268575
0.3471139356015196
0.33166663918074
0.34092331394930486
0.3339396849037569
0.3323125929452221
0.3429783933003526
0.3221534755802037
0.3319270971297814
0.3193873549459023
0.3420991774428599
0.3436095258251325
0.3626983929298786
0.3483092108283075
0.3713578687216631
0.3485313573208983
0.3814182851485057
0.3723669282459726
0.40722582844171706
0.40933077041398913
0.4405883758410541
0.44213261721820435
0.467505574491727
0.47046749581878117
0.47886609645966616
0.46914548380106236
0.48244149571324374
0.47139243458808194
0.47858461950326187
0.47527266601636065
0.47660820284514716
0.4679805816568451
0.4595366393600557
0.461858978422779
0.4681069874678073
0.4887488638286183
0.47604661864040726
0.4933441453006334
0.4798894984279706
0.5053104408214868
0.4972403044011381
0.5201526035641548
0.4948618262685889
0.516516195074717
0.49106595128017466
0.5016287040581007
0.4782879006810611
0.49243200809037135
0.4721293673101741
0.4792515785615829
0.4634695419363826
0.47120296865559386
0.45608156550588497
0.46368348229010803
0.450708156159717
0.4748327751808411
0.47905314927926457
0.4983048708329972
0.5127903641671236
0.5096517664866183
0.5167739922020336
0.5009909604246814
0.5822268616895299
0.8111486344859189
1.0
1.0
1.0
1.0
0.8483282144596787
0.5155200729472542
0.43529350175153214
0.3568815615835447
0.37166048150442377
0.32350643057042194
0.33371320536174354
0.3084235801649968
0.3284647513500287
0.3102949641654956
0.32622841768318206
0.3040140149444207
0.313794188186316
0.29390961230864276
0.2875602158816652
0.2890838058926661
0.28609744152334804
0.2986227518297605
0.28688599878458465
0.2901218908112215
0.2755422677466987
0.2913799246468937
0.29702916224355663
0.3131236025186747
0.3108374225325831
0.3530362079321341
0.35618148685706486
0.39782506988322314
0.40927571912430205
0.4615412424475151
0.4536541767151728
0.46283697877613295
0.4493957737809332
0.4519324710582455
0.43957591495370985
0.4334858037177079
0.44495098595973265
0.42945096724413306
0.42539392358082734
0.4248298022376146
0.4340878067307812
0.43607405528550797
0.45542120465890906
0.45753241229090075
0.4820370940546123
0.4684851891714725
0.4990541359516527
0.4820498570574482
0.5059101865289304
0.48641070124607
0.48732723168818365
0.46568262812509714
0.4707316527900276
0.4486350366659858
0.4560621776214028
0.43085028904688655
0.44221398990792
0.447690480710238
0.4696841140847049
0.4480936491352317
0.46251816802698276
0.4596945271140626
0.46926096233708947
0.48301632514734427
0.49375523996559983
0.5062928528045025
0.4869290360472471
0.5389605386227262
0.7437188180784078
1.0
1.0
1.0
1.0
0.7713732124602062
0.4693651945002304
0.4135744683160382
0.3412322576491643
0.35605419099676733
0.31348280965877146
0.3288494178406826
0.30600397059558926
0.3128930304928296
0.3110580672816491
0.30913790006788505
0.29118110797719926
0.29475008050678886
0.27595052236167134
0.2708885593185085
0.26040295785130146
0.2685921986129757
0.2808638534102402
0.26543544989040535
0.27941780770499
0.26002899602573376
0.2704552154033551
0.27406235224008185
0.3048746210211094
0.303362929444216
0.3387250321972498
0.35329708369590296
0.40671809374945367
0.41380684209474916
0.4584919603430504
0.4417433302822804
0.4477518255588871
0.4279152246499064
0.43299910074231207
0.4223367029989393
0.4336326246812777
0.4309093846970889
0.4277082230748371
0.4203642415294972
0.4314490717761695
0.43089157025449343
0.4373407885797966
0.4447059438920326
0.4393153741463539
0.4574343329448233
0.4524931626243765
0.48283398712683867
0.4622904788042182
0.4770578022822666
0.4443709895577955
0.3812486534159503
0.25289133481891113
0.21857073077978004
0.09248684359451884
0.004021693390621905
0.0
0.0
0.0
0.0
0.07256598329857109
0.1553676580045989
0.21194954479880268
0.3656033824756527
0.4893009820720658
0.5338915021168266
0.5393062759939267
0.5657282121161716
0.5765836894173646
0.5841503738023364
0.6022115394664391
0.606858364434587
0.6358524777493603
0.6434480495240649
0.6793356778483737
0.6897003015268273
0.7333846183504658
0.7427721408271
0.7923226426842719
0.8105615944795653
0.8490403347854688
0.8519843618092684
0.8814735299101303
0.8623193935071306
0.8643162763619024
0.835900267015902
0.8109229661410305
0.7633683139561643
0.7100898725179958
0.6749019563263531
0.636211115600805
0.6065048745254118
0.5744228440104632
0.5398106312954478
0.5059525552357456
0.4982097695392107
0.46360596694081097
0.47966926188562387
0.46468422016368527
0.4806090270474483
0.4703800468935951
0.48447136485250397
0.4819361036957123
0.5095211492952357
0.4883214849312007
0.5084724949860373
0.47850370534983516
0.481916687068156
0.4567209884089006
0.4598468879002692
0.4328946074623671
0.43121246665399393
0.4109755521415993
0.4180330200553466
0.4015029191761091
0.4044164316146056
0.39648666040409664
0.39235290023148445
0.39929128466670916
0.391224644925665
0.40915760900714215
0.3982155841000664
0.419708010767837
0.4051407423404643
0.42261360233497386
0.4088749038461511
0.4171632639467556
0.3874518612084591
0.4029354184244225
0.3715593125199078
0.37579937634202754
0.34933510089572195
0.36130664584288574
0.3574590854100034
0.35952502670102093
0.3642767810669545
0.3671488348065937
0.3650187546109195
0.3638809751829648
0.3731195312849104
0.3682443425273457
0.38929739147952247
0.3912839205658344
0.40020482767324844
0.3835057454479841
0.38822382699128644
0.366618808972993
0.3725788535717719
0.3597449093972675
0.3713821921202756
0.35876137004594677
0.38925911789041523
0.36471463883778865
0.3939851304151582
0.379226080449488
0.4071961649206002
0.3822357088147344
0.4100233249830132
0.40808716874603945
0.43089204389696734
0.413062662615746
0.4938772159493451
0.717589755173439
0.993735461183754
1.0
1.0
0.9044448088128878
0.5061391543494589
0.39673376320222814
0.32991581705018086
0.3269423426538963
0.2996855783444237
0.310062290464265
0.28327853897107025
0.3030569160441628
0.27087925183801836
0.29611215629204785
0.2865326130187687
0.30735855294178477
0.2831018185451263
0.2985502573579603
0.2753306562066856
0.28801946692430114
0.27656327184936325
0.3071249016196961
0.2960937533791047
0.317884717086936
0.3166307761121878
0.318118206064843
0.32842575342065644
0.3480495821723199
0.35737721197639793
0.35890722403350656
0.37730297885632025
0.38366128463079546
0.41744117952699866
0.4282705251445405
0.44936600654024794
0.44965979461165234
0.46213553785315176
0.4452757566359039
0.46929822028264995
0.45034193385030125
0.47476835825929325
0.4385794185708162
0.4593939468787328
0.4448215908490508
0.4669147763964663
0.47085403091984357
0.4741307814580079
0.48292388076680737
0.4956069929470436
0.4896350236763256
0.5033254274818886
0.5019474998010185
0.5010048939454262
0.5013354197694506
0.49565339992160007
0.49660407482170077
0.48774002825418883
0.49158155930969294
0.4809184660424305
0.492015486898016
0.4633445660121013
0.47901326460592
0.4728349818593487
0.49452458181134995
0.47270213955674895
0.5010804188015001
0.49463478531172544
0.5237542698006025
0.5072949200559649
0.5226459396940623
0.5042007782716483
0.5147244199631308
0.5073250822055438
0.5005554677492945
0.4980533888848247
0.5105937855454036
0.5061649922932683
0.5117472224124388
0.6714240484281266
0.9255382523913408
1.0
1.0
1.0
0.9598246011813891
0.6140173872620055
0.4994727888488953
0.4596457519649495
0.43746493854901586
0.42299324656507264
0.40332395979763247
0.38940614732981443
0.3652574048878874
0.36189066374797374
0.3369299687153872
0.34044812831890414
0.3238290516405299
0.32862765198373217
0.3022329219166642
0.3149420030790733
0.32780319929107227
0.3209065180972857
0.3293999229098473
0.3435105400595826
0.3722839484005516
0.3890525712727656
0.41382736306628065
0.4166937850348317
0.44908891090948044
0.45758245960328114
0.4805192047219008
0.4830233181762133
0.49133921139509573
0.47476711353399637
0.4798837646611543
0.4652257114114081
0.49089977136917157
0.4556440136353073
0.4793499935761276
0.4570833549498493
0.4833848907490709
0.47742579847021893
0.49356259219034415
0.48909368488494226
0.5112648610606093
0.5021640032945872
0.502947295153618
0.5004163140262662
0.49775215119172983
0.4982334949435347
0.48370928576650024
0.4891641239897834
0.48642833194360346
0.4913142275538577
0.4886346204254317
0.4980898244910269
0.4841881597745782
0.5000648439895635
0.4741653216192085
0.5001156432222708
0.46447729442475627
0.4982099323147048
0.47682731788298927
0.5001879697906759
0.4980768019273104
0.5046472559006319
0.492449196355465
0.49674458232265717
0.48241804997441806
0.49552760035374216
0.4884541943590266
0.5029882388966792
0.4984104695839557
0.6266016455404779
0.8945015159018148
1.0
1.0
1.0
1.0
0.6855012220082031
0.5214749192339184
0.40246023428516653
0.3919643549854862
0.34914455619592255
0.37363520620049046
0.3412701479638417
0.3597665090256409
0.3193396070435355
0.32114390648588137
0.3156344156432971
0.3226089068185323
0.30851682312635303
0.32463575392098265
0.30628524076566405
0.3318360191786013
0.32863749031034795
0.3467925429070712
0.34826679869048205
0.3474613417189982
0.34415734290829303
0.32007003318836313
0.34107713727504907
0.3444080047758352
0.370011929194675
0.36773909359972035
0.3944575421078761
0.3965554735312825
0.4289581418677633
0.42183720253522916
0.4623537528285831
0.45052091136559724
0.48435663681732877
0.4681860492472696
0.49894805674431375
0.49445276282907774
0.5152970214318607
0.5032435639389926
0.5052804348936143
0.46725798426325815
0.46650889045663624
0.4677224857550331
0.48406383445403084
0.48151412155127116
0.4854675863401445
0.48134005275538516
0.4569016205743762
0.48162250588885325
0.4633908290519256
0.48036172905962227
0.4764224622720691
0.48445634088829304
0.49113787419132704
0.5003270014792264
0.49366203925507673
0.5058788343671619
0.47123996386946077
0.4791239235332984
0.4547786459240591
0.48309716762261623
0.4673127660344976
0.4808323108647265
0.47875427757871264
0.4739781099400477
0.4576758933052186
0.4795419569907252
0.4735381921932868
0.4869192463040021
0.47595301528683526
0.4828023454335549
0.4944676429787929
0.49266338988839625
0.5181350028516938
0.5084122024353851
0.6707663206325487
0.9134400487060063
1.0
1.0
1.0
1.0
0.7568629618994247
0.5212349324820655
0.4544379729781568
0.37861994580751307
0.3743405794058825
0.3441043104837166
0.34807288237898104
0.322083870239042
0.3409169697999257
0.32165083191841076
0.34393389657789303
0.33349055222781443
0.3396270059219807
0.338166321841716
0.3236439498131851
0.3317695067123809
0.30682263560065304
0.29768271854971234
0.28915766628112793
0.31035635847023263
0.29972501327636003
0.32637698120637487
0.28941780115111826
0.31944568129865136
0.29599150403655067
0.31521440203263096
0.31563526045344154
0.34785236741060255
0.3570840506430989
0.39367084992248325
0.4041102455242373
0.44137807603965207
0.45202442268824783
0.4784823787560101
0.46408377182561766
0.4764462329227828
0.46146018470362427
0.46248619750266756
0.45274563986077965
0.4674775276573152
0.4697827297850642
0.4591447721189856
0.47418586695218884
0.44857829601121957
0.45511834032356263
0.4443654774206367
0.4651715712177518
0.45214755664501516
0.4834815236881231
0.45511769231017346
0.49971775066487023
0.48117556640515335
0.5133045598074706
0.48807545465637886
0.5110023997632519
0.4879626153460016
0.4780136883585495
0.4661466352034309
0.48619317619634667
0.48142740067628464
0.48963902668729037
0.4794516153736728
0.47675077852500103
0.4838779905496916
0.47329118244191665
0.4802890019653258
0.46082433286397473
0.4805541426811651
0.46691723236569
0.48765936633034446
0.4678898295587778
0.48042112444677515
0.45452214956628384
0.46420001447167536
0.4465657619741246
0.4662591741369651
0.44552725955975225
0.4861365182420362
0.459364898557926
0.4768657625932099
0.4521409270533977
0.46728168983373053
0.4606864927014681
0.4727069057407232
0.4704547458405878
0.4817518504118851
0.4812099114246501
0.5011146733804809
0.509230108501103
0.5049640800042925
0.5060502027565096
0.4821728775284552
0.5005097873516704
0.4727799463609985
0.514897851171645
0.4995037581717511
0.5306336264578365
0.5461057942964297
0.7719278514899731
1.0
1.0
1.0
1.0
1.0
0.6733445422955426
0.5095001652620306
0.44236431567984613
0.4217182192586787
0.3961845491075067
0.37345673713336
0.3741812178344782
0.34600957366962415
0.3077662963750704
0.3198285670756533
0.3053193958776691
0.32414694940440747
0.3156454159113685
0.3145689710056995
0.2923119576241251
0.29744108961623256
0.2869303372559997
0.3209784103656688
0.3002990461922684
0.3390125423252563
0.304990918995722
0.3474711236075744
0.3459127053837494
0.3812859610770891
0.3815256167239718
0.4034561339632264
0.39195312270452226
0.4142372923998952
0.39559003593257724
0.4262154837485122
0.4428823264180231
0.46164465033774676
0.48296613202859817
0.503999732936254
0.4824704545300221
0.49571489997155205
0.4956545211920072
0.5076937650093877
0.5168636784526879
0.5003666975710772
0.525907920302582
0.506988812150978
0.5383720946912224
0.5280668956593866
0.5277834812729146
0.5206070819006783
0.5283386077737393
0.4825122522402482
0.5271303378883336
0.4999059802650677
0.516465925930561
0.4978761970038012
0.5113778980929216
0.5096769406987327
0.5119305608568961
0.5104926413713589
0.5161222713604859
0.5087080148439482
0.5078208171304077
0.5031747681005003
0.49678869008626
0.5195126470432005
0.5036780146528149
0.5342083458927477
0.5004012813464251
0.5246213586453805
0.48107406733527397
0.5045973201448
0.47151035363681143
0.4992403553337632
0.4890138633811142
0.5260657425403291
0.4933880947872037
0.5276920287466438
0.5034440080021041
0.53764955573355
0.5505385150961454
0.8374980483787292
1.0
1.0
1.0
1.0
1.0
0.6752389492541456
0.5134024782822598
0.3914345084596089
0.3887056490327162
0.32332184355479926
0.33711156439501905
0.3022932483347294
0.3058181881704368
0.28705606221995084
0.312406794573112
0.28615047919624226
0.3097058197392333
0.27562821969973167
0.31010520281201626
0.28434898700086586
0.30843847074019204
0.2962976881422725
0.32981993803046794
0.31490143667620024
0.3354522642382315
0.3132574169089486
0.3231662575642333
0.304274702980228
0.31369538855889
0.3142820069058322
0.3189751960488273
0.34342761361152896
0.36459664170138767
0.38664228596434924
0.41324829840058974
0.4328689982196206
0.4467646922393472
0.4811190258597925
0.45318667541774327
0.48300886777181307
0.46752307936658627
0.49211667825269706
0.49057225616366906
0.4956956729038823
0.47998136858588447
0.4811354246997587
0.44497600290380246
0.45177239299026617
0.4191540823941917
0.45020613611267873
0.4494716470032788
0.458699309505562
0.4567033231504536
0.44995884865554
0.46686086995811993
0.48061275941041626
0.48447902605985255
0.4852536596887648
0.4857892887882563
0.4792283026786617
0.5072476961825247
0.4815427125256651
0.5063447900576782
0.47077280419830786
0.477272136404865
0.4335496819704475
0.45588062540588214
0.4371940880205483
0.46400987835548413
0.4459699285221682
0.46767057144462265
0.4348578719255304
0.46328294909171464
0.4439692634555099
0.46636197628487136
0.4487213134332624
0.46767562928437556
0.46348540333432975
0.46052949334827054
0.46455324122528363
0.48538981169912737
0.4706263601386295
0.47518756446087895
0.4690685120497292
0.45979770280887156
0.4630354194325573
0.45588831385782785
0.47817874380443515
0.4411942619160728
0.48024849478489295
0.48971402825292143
0.5097949362511728
0.6983274407768196
1.0
1.0
1.0
1.0
1.0
0.6531944353819398
0.5173589021999849
0.38655689261177645
0.37519085259929763
0.3061327131392778
0.30797345016593036
0.2802267495426312
0.28729435041169965
0.2684013564110083
0.2530353972489792
0.2397734647356021
0.24224525399847807
0.2461861893025205
0.2478992003660591
0.25837260467827994
0.25119888283321135
0.2870012073116647
0.28644544654889714
0.3099413024502087
0.2907066087251954
0.302559463870152
0.2720178632175895
0.29463188846595373
0.30172906028037155
0.3035881087977291
0.31898858674631153
0.341872265914672
0.3526887297126771
0.37900436494042394
0.41092985862533427
0.4381057310181884
0.44180037691764074
0.45029278258696326
0.4614809398042509
0.4687321848568068
0.4886073758459316
0.47830289825705397
0.4893847097441387
0.46227234261262196
0.47442748200018975
0.4438424493558453
0.45910644692072927
0.43696713220095046
0.44716190560024993
0.4208488128258221
0.45871933367420004
0.4342815411964234
0.47216383867646183
0.4272164934498595
0.4684885468450995
0.44829034715643
0.46954979888232734
0.46614166666419443
0.4950513096581319
0.48952380935701767
0.4729613385608391
0.46894253196469177
0.4465697287899231
0.43735695150989484
0.44452883120490005
0.4562295467488121
0.43063426608045996
0.5841379090308327
0.9087421886419506
1.0
1.0
1.0
1.0
0.7670829346884398
0.42881633823057586
0.36784176741676217
0.2960225290362805
0.3196547626823253
0.2566237282207786
0.28314909741983935
0.24182846388995755
0.2185434010444876
0.1794649783186318
0.17431186056149178
0.16101844736413992
0.16027018009932742
0.14384603575022786
0.1362170851034008
0.1288971274497721
0.12167135437182744
0.1463710005450499
0.1223255860064254
0.15291452479603462
0.13152163197908534
0.1705253253402672
0.17569021925359243
0.21745193821452072
0.2241295675069927
0.26374437419095614
0.26070086053719965
0.3048031436631177
0.32687308647954083
0.35961944292778875
0.33568613933561464
0.35785201678074846
0.3386495348574344
0.3728104303610296
0.35729736155959707
0.4000772352032776
0.38062378544410663
0.39065391844792485
0.3901379897018053
0.39063516328718373
0.4111653895455265
0.4158141092147738
0.4319186826670611
0.4054167577990735
0.4009928781406294
0.40339014416206587
0.4160503708991155
0.403795038637377
0.42492396573406077
0.4092337951826483
0.43217445730582293
0.41034241049931575
0.4370329512656926
0.40461997889208706
0.4527052085627651
0.4184920714107814
0.4626780644061344
0.438199284812461
0.4556255852893966
0.45010930584230396
0.4587003264210188
0.4397480955190102
0.4440586293630286
0.43840920061398253
0.44357374723420423
0.44105448693899374
0.44231779988626696
0.4317091480197631
0.44175430568859336
0.4457848100825717
0.456916404711485
0.45530568475251726
0.4516834251376848
0.4975002530350797
0.4822507386416369
0.516743104563019
0.48856441023277525
0.529484074884536
0.5032277899477934
0.5172747524665139
0.5169898002235249
0.5192061387930967
0.5156942940007111
0.5376320045067419
0.5292097775774254
0.5366687269586021
0.6870667284904165
1.0
1.0
1.0
1.0
1.0
0.7009726939097182
0.5472815301337057
0.4942701544002614
0.4548947423741351
0.43645499348409744
0.3931601208644845
0.39142641933402944
0.3743953874977227
0.3742426079873355
0.346814633968893
0.3523145702380676
0.3096613986055795
0.3401035468686599
0.3304232046462519
0.35228705151976725
0.3523310134363919
0.37103340688416747
0.3882667840196075
0.4020390770596795
0.41945132763634846
0.4167005270879088
0.4247068509214082
0.4219162356908012
0.43124706217257414
0.42856077641945467
0.4525301694930601
0.47215940121193506
0.5073573869276979
0.49825840502094454
0.5410667847215092
0.5273342489536101
0.5706283917397009
0.5572877228474857
0.5745184684190395
0.5603125951016674
0.5859014627758194
0.5862209976861794
0.6080413150805801
0.580925350232374
0.5980773648424965
0.5638662017822922
0.5892969952877084
0.5639341771357327
0.5812623043698922
0.5673551461507711
0.5694655724745749
0.5580885246178665
0.549977082479842
0.5617386057894682
0.5685235802449652
0.56712374521781
0.5704179305241375
0.5624595231879305
0.5473087169273544
0.5663514467804418
0.5751568637359332
0.5938844505213007
0.5719924178089644
0.5975124193859372
0.5554732190280322
0.5814545367571423
0.5513642776737675
0.5627287963458654
0.5626558691690342
0.5540490674323607
0.5380424499342455
0.5515099039847615
0.5419286058290413
0.5481378849655649
0.5510799323509915
0.5407282958168288
0.5466197357872777
0.5460079279466553
0.5741829492712396
0.562380208993699
0.5762065945367822
0.5655485434214855
0.5761304337851436
0.5584911284508962
0.5685076969012505
0.5484101703706663
0.5684619023650981
0.545576038409566
0.5745545717127645
0.5334539447231152
0.568774773866596
0.5618420379955555
0.5769336013521187
0.6704633761392148
0.9972030000691985
1.0
1.0
1.0
1.0
0.9695677014614537
0.6358429182146984
0.54383816345811
0.47328225281447944
0.45427435243256176
0.42203263941856084
0.40281594410806826
0.3920110289846119
0.3917119315672931
0.36558128774238396
0.3620274018852479
0.34464313061057367
0.36887036074764035
0.3598397455058973
0.379458048234463
0.36160619876419065
0.3855646327065457
0.3811705679857238
0.4022821596156444
0.3818465426867223
0.404385438132255
0.3863704896236607
0.39923891610060186
0.39291041463564563
0.40523933433029385
0.40627108871097645
0.41755468216615144
0.42978929162231994
0.4529345867648546
0.46263758833231144
0.5024284486502839
0.5190414883224681
0.5323704643643407
0.5554816886114422
0.5434683544276696
0.5676820876140745
0.5616533806892821
0.5810576225814323
0.5574384871002376
0.5600250444600384
0.5320078694235157
0.533632694899787
0.53313298963816
0.538822619741582
0.5285439573200011
0.5440623774007636
0.5284344232421467
0.5420643095675823
0.5310038438878781
0.5156050661971623
0.45323357799323993
0.5540115638397193
0.655518769427324
0.4030135861484349
0.16009722505724713
0.12767075616513343
0.12705213799117926
0.21898199124757403
0.2262486835490399
0.2389133034394182
0.27115163364425243
0.3404782976240963
0.49771472391713123
0.5057675536147358
0.5541105583623799
0.5390042019256092
0.5885027267625476
0.5714684315895627
0.606941372622344
0.5975334126465092
0.6341603401420641
0.6443008988998382
0.6914028423067407
0.7071865284387109
0.7573492434685352
0.7831457587343231
0.8054365124797099
0.842966665118641
0.8474681048814379
0.841881708949308
0.7903326175590852
0.7488498550464426
0.6982242269838365
0.6816682171833499
0.6137772186703935
0.6033789291200962
0.5674643915051218
0.5777482634799946
0.5493423253922858
0.568060678517507
0.5321400620932268
0.5288629168774824
0.522737707541088
0.5213480304164847
0.5073259144262228
0.5007591915744372
0.47557960892643525
0.47890247976392414
0.4664110263355269
0.493922515723421
0.4798155253573005
0.5018062546851708
0.47751542943340863
0.4935675671351202
0.4971058681988441
0.504957429357493
0.498918065178472
0.4940308878998222
0.4895701852226663
0.4892227063985871
0.4821361839814422
0.4716447934524732
0.4557432908036595
0.44423943281521827
0.4605539367673404
0.4478303619352312
0.4690463289431516
0.46168023203203185
0.48797007769806555
0.47500469030165393
0.48737141692883024
0.4941373842216924
0.5160843931320509
0.509100965426165
0.5422966362645925
0.6793367451517682
0.9788780196222715
1.0
1.0
1.0
1.0
0.6210981092508722
0.4719537089973489
0.4060697989510726
0.3837509905637756
0.35845300560400967
0.34339974646478716
0.3523297760169529
0.33781981293339713
0.34691923796869417
0.3269604233845916
0.3547138466073247
0.3421531855139651
0.35077194979327087
0.33369376329138795
0.3475267151075459
0.3483379729317087
0.3526533467030843
0.34743025005467265
0.3523477675673182
0.34148698825439844
0.34534276099700384
0.333330207834328
0.3366039017131036
0.34881126088945535
0.36003448592360804
0.39305856912591297
0.4105826634770672
0.4415853531270434
0.45925660474693936
0.5112092483667107
0.5198059537978676
0.5370112272548446
0.5385698731712429
0.5498577752156052
0.5317342685148644
0.573127118083879
0.552972251939459
0.5759275651135711
0.5392763071376268
0.5511321108906577
0.519733148237972
0.5402708687999889
0.5326256766998558
0.5476182349406973
0.5498615958534965
0.5506757500494155
0.5665665152276341
0.580036947767884
0.5856772837937971
0.5745135078183592
0.5727629829718187
0.5594943461206742
0.5719564249200283
0.5494759715000861
0.554873659311356
0.5362094018386249
0.5619389964605788
0.5377579041493126
0.5923620225311794
0.5625506318044506
0.5901796521472684
0.5630468335192109
0.5930792346011868
0.5779320965783719
0.6194523022660756
0.5988355945929976
0.8190577951715717
1.0
1.0
1.0
1.0
1.0
0.7399637368182793
0.5791947813419476
0.4769305492982962
0.4615986321360384
0.40622228083153267
0.42031034829402697
0.4130058665951676
0.4300918348082683
0.41587926008728526
0.4289485166272587
0.417149576251198
0.44080972119520656
0.4175555816553416
0.4326050043305595
0.4034272688379377
0.4197895054794204
0.39305820580687845
0.40897992405452815
0.40583614136755514
0.41638257270407786
0.40618665413256033
0.42011092275159256
0.414245920808561
0.43874787401311827
0.44089758176738814
0.46294117842220395
0.4847061035339209
0.5023080372234757
0.5346695268304205
0.5567003555899
0.5830144525957757
0.6002462361433836
0.6061690281600356
0.5844409186736571
0.5984232562139364
0.5669284235293689
0.5844864486577903
0.5733628700062467
0.5779388902264644
0.5589261474033463
0.5735190463145958
0.560976019288306
0.5773741251771292
0.5682223424636701
0.6015746970174123
0.5879295374901943
0.5892167094101096
0.5915869547522822
0.6084802143434261
0.6168872018912884
0.6193916168954984
0.627970836392962
0.6144004022318208
0.6250273618958062
0.6095640168613847
0.6100881705820805
0.5938524754157467
0.6081508735873946
0.5824575209063493
0.5932527739453327
0.5660223611559292
0.5953974127473043
0.5758067715985383
0.5988196507441426
0.5926075740727692
0.609539512890622
0.6033174206447991
0.6272118537269966
0.6084302469240617
0.6283151142204256
0.6148928817767538
0.629171608331357
0.6038309815637183
0.6106346397242286
0.6114439137900425
0.6019547600272224
0.6202743212260021
0.7527689393844552
1.0
1.0
1.0
1.0
1.0
0.8160163950943439
0.6325133549371095
0.5396141875996218
0.5567890553747559
0.5272846660691188
0.5317852036859076
0.510960968691927
0.5135998742369629
0.48381689466472516
0.4856713663100375
0.45408277775287453
0.4697801590177912
0.4474918160464928
0.44644773816419986
0.44133698911757585
0.4248628585048909
0.41102222348125317
0.4195065823204091
0.416995720265876
0.4136307071103656
0.4193721844227428
0.41705514179956704
0.4459530646590011
0.4557472696224959
0.48960313249835385
0.4889200533654379
0.5085665274239128
0.5211609238301309
0.5468037626174029
0.557946162668977
0.5947759823345238
0.5851222436984225
0.6128681457663632
0.5895249541825985
0.5942860923656343
0.5772994397288551
0.5845709471868441
0.5700396932834585
0.5833756435842112
0.5753505868112725
0.5981480433598332
0.5972925212557796
0.6055329986571892
0.6177384178084749
0.6163099892834908
0.6338250049085266
0.6272505693561181
0.6218680178093303
0.6045064317044242
0.618065022569345
0.59574574556113
0.6086663997586894
0.5786621400865972
0.591818394609987
0.5647702702562728
0.5807005394100886
0.5778624634499214
0.6002838127786877
0.5836082997119387
0.5936084967938929
0.5896687355644963
0.6220274451006903
0.6070838081826418
0.6142233767690907
0.5921768844443869
0.5966664886910608
0.5924718401622806
0.5738877319569079
0.5720416837565663
0.5628773626176883
0.5799403537246794
0.5773901128333643
0.5602617246448484
0.689008373532726
0.9949762511997772
1.0
1.0
1.0
1.0
0.7255594367972182
0.6134649258162923
0.5223437959414182
0.5197939144914134
0.47172004406096824
0.4660217075415248
0.4189743668812228
0.4162596286635605
0.3985950138813513
0.4023985200269025
0.37758482623106915
0.3846072581622706
0.3646822382017709
0.3800539476886703
0.3911506008282612
0.3921585158520142
0.4174093336121089
0.40408079457320306
0.40981044685675644
0.4111852771719807
0.4394473787119598
0.43304232634034834
0.45623617101742403
0.4340299275625596
0.47073321993704836
0.45076512040061545
0.4853518117194354
0.4871009897513453
0.523542612613639
0.5354791685844023
0.5626241275382162
0.546354415039634
0.5662212634653487
0.5631459615954566
0.583216004047627
0.578553179041387
0.5691840993719899
0.5856273393440009
0.5827991939372776
0.5981137902614598
0.6003658231272493
0.603771903936863
0.5940574740386623
0.5888983078859011
0.5641124038351617
0.5733258784569888
0.5510174261421501
0.5667051471110495
0.5556408894822422
0.5687193345914798
0.5477815202160157
0.5690108894763555
0.5650002824347727
0.5810707074171926
0.5610173686012854
0.5843732106611462
0.5569056702299836
0.5851906423425138
0.5833708094916645
0.5992435716434159
0.585919964354978
0.5893038054049619
0.5914174391107405
0.5828982066453284
0.6424609054742929
0.8918044760163848
1.0
1.0
1.0
1.0
1.0
0.6558827863729823
0.5717711141243302
0.4865173996191879
0.4952188076197034
0.4436131525837528
0.4647833252229449
0.4239921555296495
0.4516535772656316
0.42417273238930076
0.4397796064100598
0.4227176248029066
0.4181795542279665
0.38955057734933485
0.3925599605176454
0.3753771405283252
0.3843986054799463
0.37206724082105624
0.36312567040318927
0.36497844873654656
0.37098167541649346
0.40368285208434296
0.4154916529214462
0.43728358608821705
0.4349639170297673
0.470244907899467
0.4934157779490495
0.5457990577647164
0.5420972092273246
0.5713960492808334
0.5549694117549798
0.5726971231194763
0.5393858537332541
0.5680992138882359
0.5255120177700888
0.5606868219667387
0.5245835751090586
0.5509484335299123
0.5420824582035203
0.5552347845890465
0.5668634984619005
0.5725123635557634
0.5694586944906923
0.5841461041384484
0.5961758857014174
0.5916999180514323
0.5975051845514432
0.5899066454266823
0.5724230370642097
0.5529119712765734
0.5472121966033747
0.5240078736946876
0.5504521475280638
0.5096548982340564
0.5249712953586364
0.5157883277124289
0.5419175458211181
0.5425788420053392
0.5638134221149431
0.545236848745476
0.570190144990492
0.564794763419295
0.5730856663374563
0.5615383920236127
0.5509180955676942
0.5662406194874042
0.5433900695502727
0.5504146555895055
0.5297731689460077
0.5341934047124739
0.5340930888486431
0.5351678423660042
0.571066919380147
0.7995549174338794
1.0
1.0
1.0
1.0
1.0
0.6739956628675305
0.5349514629014968
0.48766391787770946
0.4601337005780448
0.4582133703655251
0.4148844461095734
0.4022093464440332
0.3828822088231488
0.36600757740916623
0.34772856916878914
0.3409684255321045
0.34677825225433
0.3473667655857679
0.3387473099874751
0.3325352067482578
0.34067735298017093
0.3492881768648345
0.35916479820073566
0.3488881179585992
0.37529958390396523
0.3549778559401489
0.3919065974951149
0.38166056411397487
0.4137829071500777
0.39965926988488415
0.42765588963288775
0.4088184791963879
0.45213320806164514
0.4359573388132795
0.4852069058431546
0.47281761975067643
0.514499274214582
0.503243136395232
0.5052592539390538
0.5085058157016616
0.5123151364473716
0.5064439287088431
0.5163573217903499
0.5106348703839301
0.5156880335147795
0.5349867086767376
0.5278347299218542
0.5570697032984376
0.5328467367903005
0.5490187250512824
0.525928624286296
0.5397108598486333
0.516126512656405
0.5249700621784564
0.5148344390083083
0.5301972678579244
0.5074474771697159
0.5366854817104465
0.5152591073298475
0.5403078932086756
0.5267678293907079
0.5322188518362353
0.5111614440248624
0.5365358157446181
0.5302523498171251
0.5322062972844668
0.5352772467858559
0.5310180744983029
0.5187790037486987
0.5094093819626142
0.5011952761954606
0.5044525204384617
0.5160191623235881
0.5129398740798387
0.5074481501701488
0.47853356262977725
0.50593845553864
0.4899047215371903
0.5200892313616972
0.49165409382476194
0.5268409122353126
0.5228053376068121
0.5424034396298871
0.5305969603661194
0.5495439015020535
0.5371450750475874
0.5463836223339086
0.5215874197319251
0.5295641340082633
0.5107841192607927
0.5268256532676853
0.5169276996692783
0.5437821436987162
0.6105607025829554
0.6226883051634522
0.27665427099127854
0.15761396276047474
0.2741555127915236
0.316467706085961
0.4411179119489252
0.5322212864042563
0.5353327594737115
0.520249015100366
0.5314371517040195
0.5103649516352002
0.5245379361099444
0.5027940723794615
0.5374486044319595
0.5178948032743639
0.5460479314123006
0.5187040839644401
0.5497911607823335
0.5507690635479567
0.5863532070047028
0.5928493243128713
0.6189635957014152
0.6510637053407856
0.7004761167655997
0.7222969239725101
0.7660980227318109
0.7804503020644024
0.7876141913495885
0.8065934270913442
0.7907063223033883
0.8020605844685346
0.7666455519022625
0.747304636111892
0.6988911509775719
0.6699347644052257
0.6152431957531159
0.6090431100858368
0.5742251595774303
0.5911126289689154
0.5596912547687484
0.5869227941582713
0.5650848717779484
0.5900955889265656
0.5967924664012985
0.6124943884807686
0.6070967591443696
0.6162392773850105
0.5951866571727762
0.6094711889587403
0.5942321866136748
0.5995567692402757
0.5843910278066933
0.5688669347734192
0.5696528883745867
0.5405042384967164
0.5654127490201131
0.5416245653612901
0.5717189587391817
0.5451337972263577
0.5602455368895519
0.5528323746583899
0.5668121979485995
0.5465726405157888
0.5569124337686764
0.5330252886289022
0.5401985596810043
0.5078650673028925
0.5211209919383204
0.5072327092065942
0.5198606786032695
0.49935883503481665
0.5135297677923824
0.5043454753520157
0.5084302330140711
0.5042179162760505
0.49973652698435744
0.5142767904134958
0.5178322673420295
0.535996171660468
0.5199989042231101
0.5375248010044567
0.5246012151820093
0.5342430964577615
0.5091111374351289
0.518123807110394
0.4998350552991585
0.5279695186834904
0.5039954115377665
0.5240185988175216
0.4903266924936059
0.5251902905409926
0.5109099099642326
0.5319205255907671
0.5245089017768862
0.5393124506693864
0.556411228301904
0.571005061621145
0.5708957290555075
0.6242899470846657
0.9054162625752333
1.0
1.0
1.0
1.0
0.7216016418844646
0.5451548037217314
0.4628443722628089
0.45300511880658584
0.40281241902920284
0.42546255552055945
0.40309924627379257
0.4295486292829331
0.39465057705756906
0.4258842609094051
0.400605281548054
0.4062631997360346
0.40062430257265913
0.38254535835886694
0.37783376574998895
0.3849571520265235
0.37255046220436344
0.3831591549333161
0.3696668148638045
0.3698676733438777
0.37261316362180313
0.38810760773678055
0.39802847330236746
0.4010536680707541
0.4400697495293525
0.44247121778050136
0.4995078313152038
0.5173966221160408
0.5590557966709556
0.5431740628559268
0.5604619022213714
0.5451511171005505
0.560258989251371
0.5457163481996714
0.5589225429236635
0.5292966781230257
0.5373419841456488
0.509115761908329
0.5166030098228671
0.513967649760514
0.5242063857473704
0.5258142924467262
0.5382360113611044
0.5459797520529449
0.5487209087922216
0.5772815769906742
0.5649603617788135
0.5681274129864292
0.5591210434898743
0.5515945368477226
0.536401665180187
0.5572768455236932
0.5272526077465963
0.5500782412166132
0.5164660609388478
0.5341589123141455
0.5129374535341845
0.5291850518252731
0.5107788064302229
0.5134864256373726
0.5071521156418715
0.526631570525675
0.5265782845757982
0.5526511530542547
0.5413941327213772
0.548398248571271
0.5416157649211275
0.5394024567018189
0.5252869680566032
0.5155921487029769
0.530596452626275
0.5075719929827188
0.521700113283973
0.5086934442630925
0.5266168277543419
0.5229505812106932
0.524193608019681
0.5164618267933128
0.5471183470912079
0.5191892364387292
0.5525299618730524
0.5366533949164387
0.5767595147762419
0.5482304451363365
0.570245871384371
0.5522054855647148
0.564573471974998
0.5607194358612052
0.7868434963044949
1.0
1.0
1.0
1.0
0.9587326959258083
0.5874696316094514
0.511277479086579
0.4430086840190285
0.4476621218019396
0.41701421567189056
0.41620738325372475
0.3856395084463198
0.39602389262010185
0.36692718126109575
0.3944371823505931
0.37066597051246497
0.3810372390268291
0.3598658747210088
0.3861718276430216
0.35681414579292914
0.3784509431178852
0.3480309380805007
0.365952158884934
0.3600985851971547
0.37013065294780423
0.36414680553802825
0.3816926121963595
0.400196681902925
0.4238219108152264
0.4517222804246724
0.4767848402697698
0.4879201965255634
0.491472716922294
0.49472198824494135
0.49959607059382927
0.5076007991402053
0.5022921649041505
0.49838169586045555
0.4836744568259568
0.49999936778850185
0.48705824255079805
0.5195870049671227
0.4949318118996125
0.5165205243911999
0.505064557514268
0.5306335599992539
0.524815014796045
0.5354239446436975
0.5281327377924943
0.5308961291081312
0.49754074259136616
0.5131966333401464
0.5021444072961618
0.49994740073399146
0.5005428462990652
0.48691911873761085
0.493772112509855
0.4800770082453413
0.4818362211112179
0.4817281633830425
0.49445939552157947
0.4868778187607422
0.5014546522477435
0.48708885989569195
0.52118908820059
0.5055279286711796
0.5330505981136763
0.5154807146694702
0.5282099330591175
0.4973001123864826
0.5335673144041151
0.7666188356761007
1.0
1.0
1.0
1.0
0.9693378424582871
0.5608626611898121
0.4454843857074378
0.3813142114733816
0.37217327845229753
0.3387346650202254
0.34287659021958666
0.3208276084190994
0.3172784611033184
0.3181520947259854
0.3020621927733458
0.2956779550262765
0.2684561104962292
0.2770173896315335
0.2507631738648767
0.25620485785041314
0.23617871561168746
0.24681794078086816
0.21804743954856373
0.23988067870039148
0.24256601933333993
0.26222923274093957
0.25714176139955447
0.27868287025653754
0.27064490870865476
0.30935162265590954
0.31458169961161014
0.3355122377324711
0.371545705113112
0.3728309819634655
0.40172650015949685
0.386257951044659
0.40362759185757346
0.3876730393989417
0.3953680764701817
0.388758444709724
0.3947722311530849
0.36143301278016626
0.3863303389937284
0.37034176041805067
0.387218760177615
0.3679085386882238
0.3911383750777112
0.3796920026014376
0.4020089232559293
0.3986987174441482
0.42322446359888105
0.4056006531890177
0.4212114837436392
0.38919942989111644
0.40221406829091133
0.38623965958512974
0.38823756242769897
0.3767698052050109
0.36675324021026545
0.3791968642452303
0.36917943898577454
0.3759423108972372
0.36194626713076417
0.3700928754756897
0.3721245125883768
0.3781569274980761
0.37949479939124603
0.40810657006298284
0.39459908405325483
0.41344269430123826
0.4039128783438666
0.4201494461194719
0.39087762626026107
0.4072466438734371
0.3986080646907689
0.4175865819470287
0.40310869074319716
0.5063101746493316
0.7353633088205506
1.0
1.0
1.0
1.0
0.7928589323887303
0.47852594615308286
0.3848958964364383
0.3438339013034196
0.32433489903049384
0.31462393349302237
0.2955848789540078
0.2996333928359453
0.2746734428875042
0.27440798870510824
0.27151413349569553
0.2744458776824004
0.26473386716000746
0.2786733631226947
0.251212116380521
0.2664385809260907
0.255425821750558
0.2754920185499138
0.26525241931887733
0.2759930250738452
0.2787005870619436
0.2881767963645063
0.2923846937571359
0.31456069042641766
0.3221851146172135
0.33441588700647557
0.3428071769054467
0.35374656291932405
0.38054111548993524
0.38987297140790733
0.4177870824080361
0.42167547175944103
0.4421148817625854
0.4211681599277989
0.4348790200205929
0.4223696854456317
0.45607266696333004
0.45130102705273856
0.4676612191677001
0.44474140106225823
0.47537849963563045
0.4678322102950463
0.4814956252000401
0.4801895991403683
0.4914280051887756
0.48474189676930585
0.4821065602118212
0.4734856927814737
0.482427140107747
0.4753157915385467
0.46952403770280354
0.48254347486019233
0.4620347142567874
0.4750706466609662
0.4649063267309441
0.48844597921066296
0.47371760796893303
0.4821486512946076
0.4634881590410136
0.4926800505595594
0.4850422927057201
0.501929652226964
0.47575260916607737
0.49753536952128874
0.4735853110256791
0.47766194051614724
0.4664731465795196
0.4904543217225711
0.48188833488779775
0.48940718824040996
0.4662279718591876
0.47613733153763105
0.4647616884667937
0.4848243125463215
0.4784168687609854
0.4832269066559748
0.4921629057172594
0.49226703400951977
0.5112727462281211
0.5098215034895415
0.5124147296297172
0.5007213165284274
0.5058558772638031
0.49054117493845933
0.48863337954687036
0.4876778684731503
0.5078835002431172
0.48860205502897414
0.5127662236908538
0.4865159420557754
0.4993170130631085
0.4888444225616042
0.5077179737287395
0.5095620947522843
0.5124606474357959
0.512197291079454
0.5259756198321551
0.5334904076574605
0.5434520099646781
0.5281667233781275
0.536857703948472
0.5502046995269321
0.551229696827366
0.7312935900212235
0.9821170449359865
1.0
1.0
1.0
1.0
0.7302767650758113
0.5346160443440351
0.4883924841560111
0.44123028306951967
0.4379668345025086
0.40298479825601213
0.39734156193254544
0.3959074937453937
0.40713880204599606
0.3873219616184379
0.3916238883193593
0.3717553341255991
0.3644306839190645
0.35121876753934345
0.3586974851709953
0.36760318511567996
0.36890529809710226
0.3801627682614749
0.37299093031792213
0.37654073923406056
0.3783941690747873
0.38694611964626746
0.38116485123141464
0.4038750914651336
0.3774084641133858
0.4109221898764745
0.40001908059035324
0.42408661932783537
0.44207669364331625
0.4642569891035718
0.45534942821344704
0.4710754674406795
0.4563391734537462
0.47567550446965967
0.4713331015542456
0.48597825342230755
0.4873435878404081
0.4846377472041687
0.474913949108113
0.47022814391289136
0.474339659319182
0.4832366433023151
0.47953805223464174
0.4855199044990822
0.48849364974056597
0.48080089149971394
0.4979276746119206
0.4939383941789199
0.5130965021374347
0.4926055773770431
0.4913064012766159
0.47441651708549104
0.49548705172784474
0.48035552626299943
0.5016621963520054
0.48348409536186054
0.4912867866792842
0.47173600016251455
0.4905221594481465
0.47161315307529933
0.48641611314571465
0.4837857371296727
0.49297763117479637
0.4941810162961143
0.5117673498754064
0.5147296215240519
0.5001016342743662
0.5003314601781461
0.499132470876662
0.48520534449577263
0.46964036159252026
0.48334365753260056
0.4767253388325692
0.4984591680385453
0.4885426129966691
0.504024994802951
0.4887615286369023
0.5097740089731018
0.5027514191361211
0.531684956163671
0.5213279909740152
0.5459170116951713
0.5282106922905968
0.5636308180807209
0.5855504898697869
0.7359395238362465
0.9800972085008539
1.0
1.0
1.0
1.0
0.7879251739116342
0.5850727396773178
0.4777419686733156
0.4461504882734541
0.408682483085222
0.40406932616243924
0.3788704573762679
0.3967143946237279
0.38008161515189076
0.393041327306425
0.3694219941005952
0.3875982403934384
0.37519436566235137
0.3908638825382975
0.3752634211950766
0.3752750475915068
0.3594122512086718
0.3814803054042777
0.36440622692428337
0.388206107957518
0.3817144277545904
0.40009476877387884
0.40005454429981535
0.3942672674450499
0.3940718589724657
0.40692940975292424
0.4241817961462256
0.43498816062416557
0.4709978710506918
0.48253371152053726
0.5126290329929444
0.5186283827169091
0.5493856449546533
0.5320091231968217
0.5493249601712468
0.5387100664407829
0.5469729828710234
0.5396772114346323
0.5516201586428369
0.53931211561556
0.5620920570510535
0.5373957417583333
0.5404816949242264
0.5340590404597698
0.5554827547689409
0.5457930894556036
0.5727763553265721
0.5730583190573606
0.5649751854225953
0.5819645700648897
0.5682878035438869
0.5902103660657863
0.5789360322392136
0.5808921183404478
0.5677365995798539
0.5816336272656878
0.5784758628409861
0.5802255566854809
0.5463528390941503
0.5557052305633963
0.5524246924804835
0.5741478824291837
0.5559851489493404
0.5771107280115231
0.548870169363982
0.5861202231312151
0.5652221853349206
0.6020115224590998
0.5945894999674627
0.6100732188532907
0.6050022434373034
0.7432969404062628
1.0
1.0
1.0
1.0
1.0
0.7026910540168895
0.5647166436889897
0.49880811277690834
0.49142544455899434
0.4541036285053693
0.46881674459207856
0.43171523335274065
0.4540928776528944
0.4220324446382673
0.43389197557729187
0.4123037482921069
0.4195974417110103
0.39599396822335564
0.40602240601864725
0.4056038163311456
0.4131894439306504
0.39881301162584115
0.4121443919447854
0.39549781573466836
0.40292170038375597
0.40775513122994117
0.42074854207163065
0.4366261995174444
0.4394468409376716
0.46536941125707926
0.47655843991541047
0.5109386430221982
0.5281410291917582
0.555095437357292
0.5441824342998918
0.5724808785620956
0.5553030346332675
0.5779316216406947
0.5608227947045061
0.5719574623818431
0.5503726400768642
0.557272186905927
0.5361301608026903
0.5507686787877557
0.5306925049464806
0.5523891901173704
0.5479648269370525
0.5490551489453459
0.5460227568834849
0.5490505136972355
0.5498245546990315
0.5556983908872388
0.5660030931412243
0.5645210633994393
0.5812709309517857
0.5679572931611534
0.5694446602098951
0.5524923101058399
0.5534275598161729
0.5375796773881798
0.5435219741352932
0.5178911810825728
0.5298115638839017
0.5074376028189828
0.5292379282859897
0.5147264662958467
0.5304213845162836
0.502511505183372
0.5324453126061153
0.5291444923788842
0.5590467189101954
0.5512023316271145
0.5679925648994439
0.5543763406824362
0.5509410067474232
0.5402681383691011
0.5482692001495558
0.5396322465895985
0.5407312747132914
0.5283445088860168
0.5048949644178331
0.5110912190064445
0.48301674646801046
0.5088926399599614
0.4919756036571464
0.5039640193460277
0.5014678323167762
0.5258929757824464
0.5209465450179769
0.5348357707743852
0.5230980030265765
0.5481065218637294
0.5185104530876308
0.5304535899743753
0.508203568977838
0.5195699036942483
0.5010106492399833
0.5141317046398108
0.49381050669020315
0.4796517282428551
0.47680511123630354
0.48678442860656485
0.48708971870281853
0.5019584985465743
0.5127700687559733
0.4999792529818169
0.5155525792124775
0.5107021022420151
0.5426732779429144
0.5063712416858261
0.5170060458922746
0.5008301546165239
0.4894849585163986
0.4710365232001107
0.49057441012962694
0.4679700820169913
0.4968114557047591
0.4660186936910747
0.5019205388287683
0.502084563754871
0.716941790394255
0.9556665136873594
1.0
1.0
1.0
1.0
0.6222434097996512
0.48176653603474706
0.39947573148193544
0.37929385419767014
0.3310890680430537
0.33003241877240747
0.2983034856785711
0.30611238917146216
0.27368145881239114
0.2764789216431726
0.24034158919691273
0.26773873770990914
0.24836857599698586
0.2735289667613982
0.2529407619717249
0.27436702849495875
0.25456970540511287
0.2888714778747406
0.2811975017418562
0.30324218929155544
0.2949167634390029
0.31106165666367697
0.30963590937409113
0.3205579979893304
0.3136733651995984
0.33462089198812983
0.3469091987483134
0.34668082927397526
0.3732400801011884
0.367079881484503
0.38815915502944687
0.3842140361093724
0.42080272690862436
0.42523724000620045
0.4432393013693116
0.438932337696186
0.44630341339490726
0.44173347996593826
0.46394903741295
0.4357684761136668
0.4575976843465078
0.4210066726943607
0.43809666407251446
0.4222511973751845
0.43728010681866597
0.4278617977779732
0.41490154774261623
0.41465017474308974
0.4154468083535421
0.42048866528500495
0.4302746475035473
0.4338760921692092
0.4306265640271866
0.4367591837853316
0.44388966177364786
0.4644726404935885
0.4396570347864495
0.4694816838209028
0.4382595848591359
0.4593346035925604
0.41967506976229013
0.44009455367969885
0.4128787022509794
0.4259844493845703
0.40157316469048104
0.42287099682547147
0.4137560357320029
0.4397093741521094
0.4229659401132159
0.4385688002218169
0.4284342700170643
0.4588260421369454
0.4512545728584431
0.45704469378662316
0.45681808827215775
0.4627771031941597
0.4470515432041299
0.4405317496890289
0.4569864403144467
0.44646864707025513
0.4544743863787185
0.558387483390524
0.8422848483220319
1.0
1.0
1.0
0.9926126746622568
0.5556178354799847
0.4508279969149879
0.3857236923091774
0.3820815174527342
0.34254123428957206
0.36268578695403664
0.32583809260242036
0.33338705808711216
0.3141791333122222
0.32345930323697436
0.3105648769382342
0.3133095186501224
0.30034732228116234
0.30155651483789037
0.29810739408302384
0.3072346928602128
0.3096097104194382
0.3095047891792541
0.32363408093307006
0.3192264368544563
0.34333647789976174
0.3343984899854963
0.37053166399365567
0.3658119612900905
0.39712414704067384
0.38051557974635797
0.41456146785648007
0.4239139238726737
0.44233352253510294
0.43892930314198175
0.45949439170838496
0.4335292393891678
0.44574484880205256
0.44459673597301475
0.45970716954254137
0.4555822192777315
0.45808543490958387
0.4512638454800201
0.4601588169512681
0.4893688744799614
0.49316223467885
0.5030951180562121
0.4781762588743065
0.5017670027815929
0.4764346130710882
0.47506378985176756
0.4580312091928446
0.4735939468484357
0.4500643864562807
0.4579222358211238
0.4339268416068263
0.4655521147418929
0.43702548632467864
0.4660282927859941
0.45241549417163707
0.46841161833171946
0.4619591828263606
0.4914826922431893
0.4642544852089719
0.4830930320434561
0.46598743720865043
0.468438129773814
0.4403392011225117
0.453403685643723
0.44726089465756225
0.4286859742218182
0.43989703423656473
0.43200973406373366
0.448867104374719
0.4462105560134316
0.47510388770686013
0.45038532225591305
0.46681468711478713
0.45334426295968455
0.47603185417620314
0.4670327289700703
0.48403073833143406
0.48078634883082205
0.487045619352937
0.47522953587727323
0.4786301455383978
0.530841530087696
0.8265123423616275
1.0
1.0
1.0
1.0
0.6663389662929401
0.46814764024269906
0.40663729953701067
0.36588423367896805
0.3626361334860362
0.3366650406454594
0.3437844158401873
0.3119893653940045
0.31585251726080277
0.27932895377872097
0.2813152232797933
0.2657404621142205
0.2786682164272525
0.26061289057479675
0.27838888340209966
0.24325060022935543
0.2659209241906243
0.25567738588446237
0.29125016247775803
0.2897363421181159
0.3195320415514916
0.3133768544246962
0.35226821956036886
0.35870609918617546
0.37608436660217825
0.39353002489985556
0.4028768365789082
0.4262542938613679
0.43348318210723147
0.442263462339662
0.4385263969708572
0.44052052265755987
0.4341350066666404
0.42641521863531684
0.42980378388521423
0.45025296603187853
0.4163321739139253
0.4437146383472014
0.4268238161720291
0.4531933043045059
0.4300115282663245
0.4576916832261223
0.43750942143617244
0.4539033305019101
0.4486902138975183
0.45176988011793784
0.4464274327624847
0.4497910662188202
0.4419105302858678
0.43208914939185117
0.43651849755737426
0.43859653127161186
0.4547678934481801
0.4432726247375133
0.4526204527970421
0.4569813540582447
0.4660376790205992
0.4412748810690733
0.45357790514838675
0.45727712166264334
0.4644048479653365
0.43709407344751144
0.4634108744996044
0.4323511701399926
0.49660537727905546
0.742342851703152
1.0
1.0
1.0
1.0
0.7293878721448586
0.4581955234484566
0.3894269268068775
0.34385987179853955
0.3290610603982861
0.30467032798777255
0.3051646975154837
0.2957194200034265
0.2681015907919334
0.25241947570083256
0.23158043614485707
0.23676268936021433
0.2090497351910862
0.21740454926269176
0.19182461944378765
0.20758910409253056
0.19151283679317435
0.21616984700826566
0.2011528619083162
0.23088706815133758
0.21726678571554064
0.246316086509077
0.2439750236525191
0.28604773508780906
0.27795874676479165
0.3171403440323139
0.31502130641054915
0.34760287180552124
0.3605352855697041
0.3623288507136014
0.36313910253636383
0.3654518810521663
0.35323622640933067
0.3359037796374024
0.3099786601814586
0.37080850691270584
0.36017128696480893
0.0
0.0
0.0
0.0
0.0
0.0
0.0
0.05424185554044847
0.10199401202346495
0.26467822344537806
0.31248543301482556
0.359859392962551
0.37052679334170635
0.39663207767119973
0.39476687890272555
0.40755741088666636
0.4211419186484598
0.4541340707192053
0.45769632412792854
0.4844914177043784
0.5217428423955737
0.5437489731389424
0.5940476792144771
0.6067182794319933
0.6714887459941423
0.6693144203371773
0.7323750932852253
0.7350466013668854
0.7689285055831088
0.758293972544168
0.7942883058425393
0.7594934589024893
0.7593494276097823
0.7042682023904988
0.6662045128234283
0.5950441336374046
0.5693712417162965
0.5233077349716487
0.5069738449996215
0.4518673703973703
0.45100983633270825
0.4104162559366708
0.41262255576156576
0.40890731123443746
0.39813039992325094
0.4082203040733205
0.37812617653824765
0.3654660968882697
0.3623704842796479
0.36777203924143814
0.3419614412152902
0.34977310741276757
0.3205338253286626
0.33642879208279897
0.31407462627597516
0.32386554816696705
0.3098434021116413
0.33022774178409026
0.3097458670202937
0.3279564012688898
0.3058694547661912
0.3465726801882934
0.34498375109352275
0.364733257914157
0.3590884371081982
0.3662505353666994
0.3624592982373286
0.3561940467742131
0.3448191271357451
0.36134128386821035
0.3586499660128153
0.3477834450084308
0.3520835870820253
0.32385485498181527
0.3382948658091679
0.3168462505511448
0.33565374857396224
0.331344675574291
0.34874847520263874
0.3490505022222708
0.3727141482798446
0.35399059380111547
0.3747417279012441
0.36096185054252894
0.3888056368543198
0.37143502367212344
0.3726325806745413
0.3654320442116038
0.3756678118940473
0.35380219280888037
0.36933212654040204
0.35528709770005584
0.350019125052636
0.34608345683046743
0.35241560355747154
0.37389799517697186
0.362956018182678
0.37506904242377603
0.3624170988836643
0.37685856710094867
0.3787578524084584
0.40009345213850905
0.3905301498985848
0.4220474580868916
0.39095553401034977
0.41933481748546386
0.37080611698162114
0.4003138836293399
0.38783418731363173
0.3963862063788927
0.3803290197792128
0.3982849354377838
0.3934339630167356
0.4032314275356459
0.385955785361315
0.4149123437300263
0.41279179678487027
0.41728524296351566
0.41748282331018444
0.4363230449513238
0.4566796517403914
0.4608542405879622
0.5233321919010051
0.7564853703100158
0.9871230784036772
1.0
1.0
1.0
0.7150350725887713
0.4370538945492693
0.39756527269749187
0.3200988979396381
0.32777803952493556
0.30983864593468785
0.3110451976269544
0.2816043124116132
0.29240498432969225
0.2767763995183041
0.3032687897643713
0.29695523219317194
0.3011997615602908
0.300752104209763
0.2963440518227023
0.30245303396655565
0.295074222602793
0.29884999090322517
0.29588232097141365
0.30936936057161335
0.298540067502313
0.3224610533127835
0.30445623103128644
0.32328913003538645
0.308841165868167
0.33653021374526315
0.328126528056519
0.3524127576573172
0.33943221775379034
0.3594230848020512
0.354034535166247
0.3931439064734916
0.38411334050962276
0.4212692855459501
0.423325271119581
0.4325976659552695
0.4251046551152612
0.4461109295931661
0.43050010344156825
0.44115116647891
0.43476928300873896
0.43039869955743615
0.4325227845907875
0.41734155997158995
0.4387453457724133
0.4350564944533402
0.44541258837836956
0.4438177744062896
0.4524292271698888
0.44168437781505177
0.48373642702254427
0.46798120197589244
0.4927504323392718
0.4744995929345782
0.4801334120343623
0.45285693057744963
0.465554241798203
0.4498549377524242
0.44742818394718553
0.42634812091717517
0.43325522015406603
0.4229789012857976
0.4276136296724868
0.43139171928861897
0.4323386405301946
0.45720412309063685
0.44583228596998764
0.45154179818498275
0.4515318315812175
0.4702703152928868
0.473253809232681
0.4886532786678668
0.4701720959468636
0.49735645142787516
0.4569604742213242
0.49692955897454666
0.47195487624733506
0.47488392045213307
0.4800302276916013
0.6792981212714929
0.9277647246074977
1.0
1.0
1.0
0.8932405811979821
0.5559823140810793
0.43993100873021945
0.39484154623851814
0.39943492441129946
0.366619145549074
0.3658804804140998
0.34500509393015977
0.3472782008903887
0.32408417227162095
0.31875244789449547
0.3074418601396245
0.3085507409876575
0.289966226579654
0.3015293066861706
0.27475375123179513
0.3052314216418209
0.28290113334489586
0.3048493853558816
0.28893134886443084
0.30867887176415526
0.30726907002127
0.33957810111255987
0.3467540976937091
0.3690642264024203
0.37413537174291567
0.40419792817033695
0.39577230850420214
0.4257175325592102
0.4424178496294061
0.4542041462844165
0.4525608847817155
0.44310694018586305
0.4524914695639578
0.43138167109455877
0.45241393744744124
0.44450566996143054
0.45929920709116656
0.44887183758496524
0.47055459007695344
0.46283986488009726
0.5015933633256363
0.47774430951141794
0.5091114333889066
0.4804821975390058
0.49849206106472693
0.47128997091362573
0.4848999255741012
0.4577789715667696
0.4733570158407595
0.4567118038920082
0.4607696176261314
0.44619324011940087
0.46907068009212455
0.4706629674778345
0.46468176112116294
0.47984498200682957
0.47799491926932625
0.484657896759712
0.48865924708360337
0.49478132754168114
0.48637605931526035
0.49802301431423635
0.4818187628953784
0.4948291815221202
0.45541914991107985
0.4740788839752096
0.4681740217907554
0.47709779930356777
0.46478341124592415
0.47334455110574547
0.4457569847517456
0.4675646058946783
0.45042337266482635
0.4638183663906263
0.4679596837552963
0.4793731788138893
0.48316047711142646
0.4873372733944884
0.5016903676011497
0.5089969907373552
0.5359989679271406
0.5469669799199075
0.7223752884305169
0.9763584571226875
1.0
1.0
1.0
0.9080476260000191
0.5650615232813778
0.44903468902943044
0.4029586625782587
0.3765184748361273
0.35841407833012906
0.3490777356538587
0.3482455084212411
0.3504488239101513
0.3568303249880042
0.3579275544199553
0.3642321860289252
0.3601379047632659
0.36270997576775627
0.3412841828040817
0.3444676058296496
0.33830168612629663
0.33440551268544355
0.3497756084778557
0.332646639243115
0.34734328385281354
0.329454781330463
0.3626932026847708
0.350373702024257
0.3747741829023051
0.3785035427802461
0.4163267490215471
0.4293091253782033
0.47940350991956715
0.4694169727906742
0.504128411399665
0.4678174135176133
0.4919581894095987
0.47250344517620757
0.4973385557226904
0.47801457579866086
0.4845430063641737
0.4663646143879731
0.4825601408538585
0.46071997939702847
0.48359964165783725
0.4810023837908129
0.49106873196302125
0.48734367485131924
0.48285577745694264
0.49261760138698596
0.4951268820892326
0.5079703220671874
0.4906214662035276
0.4970720120566313
0.4769903852969321
0.48403377716836926
0.46845204122133205
0.48106564938271035
0.4610632817594863
0.4776764449425489
0.4464614656464427
0.47424659370027555
0.45857685408762067
0.48335155797166135
0.4720351599508549
0.4793449398072934
0.46790594998115304
0.48782596296426084
0.479911583994774
0.49436454743686686
0.47850327912856744
0.4868059878410058
0.4781006282717949
0.468596851661448
0.4731693964563794
0.44967856470368217
0.4627276463408695
0.4549563352806595
0.4806040881280994
0.474976502458325
0.4929429004480294
0.48784635360401635
0.5164905586927565
0.5651945028083987
0.8533005468229223
1.0
1.0
1.0
1.0
0.8067804948790069
0.5504755389842699
0.440904140441138
0.39720001827855866
0.3593600200778074
0.3540319357080618
0.3430030362655894
0.34819924217595954
0.34006479167229975
0.3151034605452933
0.31264713948638895
0.3082565174724061
0.3177989104338135
0.31095850859245644
0.32089966956353055
0.3159114843127898
0.3333597184858466
0.33613495735199206
0.3452013030532012
0.3367201366263496
0.3554091248945782
0.3261658231543212
0.35191917389224925
0.34423409766857904
0.3711203545602002
0.3705871377361628
0.3912534458503235
0.39913300315369726
0.4122534582385312
0.4360266890701934
0.44993056880980237
0.4671698056462737
0.47103804167843205
0.47331636120682213
0.470190969887612
0.4667684010927603
0.47856854879151617
0.486885469770013
0.46341593736315606
0.47232656665645856
0.4524478086151289
0.4720257022038328
0.45371674826635494
0.4745633319052665
0.4469231792181098
0.458769442847821
0.4544974906074472
0.4712224183291317
0.4610224516092128
0.47115944684623895
0.4527358399096416
0.4603737360641672
0.45124621442159396
0.46569591864530124
0.4817736563527585
0.4898453808165553
0.48337835603201074
0.45699401617826574
0.4608870628031928
0.4497070041408005
0.4475616086517197
0.4523691637489036
0.4526314166744
0.4435786566870249
0.46423321526841105
0.4626970897376972
0.48073066698585976
0.6315416339694404
0.9089618612103971
1.0
1.0
1.0
1.0
0.595836402578009
0.47792826651386644
0.3813127091829177
0.36889037474441677
0.32347656516319123
0.3267884556368642
0.29646075007629785
0.3009768001083235
0.2774135029420517
0.2722665670998396
0.2465193000368307
0.2542780000492163
0.2666469432389167
0.25860294862292077
0.2730676415191382
0.25869490835948933
0.2770509018299197
0.28063213138485815
0.30369289026953805
0.2968941139151843
0.3107798365704548
0.3110055658184619
0.3204278228945173
0.2952428064767607
0.32872064735562867
0.3147385315020802
0.34713512469541585
0.3544617880724081
0.36970080146617523
0.3757223791324855
0.3884687317079226
0.4029154344043083
0.4151484720375305
0.41340616246859946
0.41841232443828025
0.42111191854297986
0.41563135022676595
0.4041724124757503
0.3726132134905178
0.32934669443649145
0.22091014079826227
0.1351906527996572
0.022998762185708
0.0
0.08576664390052349
0.20664514760301533
0.20335681872376193
0.17513176659648377
0.2632981022614984
0.4373444532815669
0.47118328870373605
0.4854266872141871
0.48016518962246807
0.5037620032986464
0.5043983315858029
0.5209608580960503
0.5097558202764173
0.5202428096154159
0.5233370578561904
0.527562706158864
0.5489663100073946
0.5586580694696117
0.589226976052758
0.6073523759877854
0.6411845958824551
0.647816401882956
0.684081536435448
0.6921872661196662
0.7311917710894431
0.7158695895759039
0.742064790777507
0.7204609006615741
0.720411536438316
0.6889203213383194
0.6708055332052275
0.6238982520758973
0.6038309975238566
0.5438652941840201
0.5274847547613022
0.5075934160845799
0.4965864130652192
0.480059897496664
0.47761959847672053
0.47067966636182657
0.45524899872794533
0.47428459325838884
0.4570486571659048
0.47374891039971895
0.46586349508758423
0.47761821349684547
0.46520385798059155
0.4847590821506538
0.46217987042793707
0.483819620454694
0.4494961215427747
0.45813356111047093
0.4398832264039393
0.45233000115881544
0.4312036285174251
0.44221410274884043
0.42223903026100534
0.4339905023311542
0.4150928135924127
0.43689120349733795
0.42151602541708205
0.43471170987050395
0.43493434947496157
0.42589567997464667
0.4541048697258403
0.4517554397065925
0.4544146152530998
0.4514346504237599
0.46134193523228983
0.4641839013712882
0.46514467002361115
0.44336341273757646
0.4625885566093014
0.44059899500946786
0.46751494655101666
0.4344088271006001
0.4550536255701857
0.4263862256708671
0.435257206646756
0.4269388815418978
0.4358307095567634
0.41833341975307664
0.4444994772105713
0.4357953727824765
0.4672968340440014
0.46336386128944185
0.48072513210048706
0.4923315054999452
0.4887188449162121
0.489776023390998
0.4916550786728512
0.5013288814795166
0.48881593218539665
0.5535943842311892
0.7923363803125895
1.0
1.0
1.0
1.0
0.6816098810506676
0.4771397397205587
0.43556897121005866
0.38425683246999665
0.3933482894950219
0.3648907872507278
0.3752527600959346
0.3435513017997479
0.34249924367157486
0.3161571458323635
0.3156941106814151
0.3092275914705567
0.3031891490185988
0.29130078984231783
0.3089163474797637
0.29487476484644504
0.326127128182452
0.32390207190693737
0.3291098190841034
0.33406211345170445
0.3387776355744924
0.37826464678689087
0.37008786515650616
0.39148420362517883
0.37480637913209497
0.4006302872712341
0.388755742310086
0.43412257486435324
0.43420640494229445
0.47240137871619015
0.4606798240341801
0.47887338630876863
0.4701399117929119
0.494142397766194
0.4742996569237371
0.49027125669483046
0.4746803067540676
0.49780452269376096
0.47598280128070336
0.4963761525254755
0.4979428962733716
0.5060918906089207
0.5053972286201727
0.48269446039527775
0.4850053758139836
0.48106556205011
0.46858395363982386
0.4699364339085538
0.4788397907592188
0.46220539247260356
0.46986144490762244
0.4615990471510547
0.48545592414713556
0.45996385090201564
0.48273807059507867
0.4626164375594858
0.4897897835143943
0.4892744346103344
0.5025143874377936
0.4958312280837678
0.49329310248841224
0.48653610087371807
0.4852550098072063
0.4724563304171226
0.4786149438670769
0.47833779461527576
0.4777333019842378
0.4721176352756623
0.47247506915021714
0.4901367443229616
0.4837261901332569
0.5187835164929633
0.4905746357331884
0.623355445636525
0.8859113448695647
1.0
1.0
1.0
1.0
0.6932134671943154
0.499043998362268
0.44925223094769456
0.3993410791105014
0.3987486397140809
0.36516353045704414
0.3565980314943621
0.33795622290871485
0.3313849232217884
0.34048627873913834
0.32607773354088565
0.3312010067766509
0.315850242148075
0.34091858477826653
0.3375275670745853
0.35204206931873994
0.3488899348408448
0.3563322006194942
0.3397836245681929
0.36686020660314134
0.3446358881185552
0.37491555708216384
0.3590197068717969
0.3917179907174776
0.40594041957085975
0.45750812151406794
0.45688555917954715
0.48451224509545776
0.47842605104091873
0.5061594799742976
0.5141860696360394
0.533804951069822
0.5148470079434107
0.5143472024899846
0.4897085911343753
0.4949679359607983
0.48576807374195186
0.4838312360021879
0.4731118700599647
0.466956546494201
0.4799425952924306
0.4724501915241516
0.492218631441819
0.4725051792948721
0.49396657802578076
0.4776149293977655
0.4995743427511622
0.5056705742930232
0.5221604942183327
0.5156007079905415
0.5225602378499202
0.49985990685311854
0.510019565968201
0.4990476877078306
0.5148948116549332
0.4914461671650262
0.5124291127647245
0.4973154401173459
0.6137877407457857
0.8633610002735933
1.0
1.0
1.0
1.0
0.7407214528442526
0.5417912002115813
0.47086066741697774
0.44512827661152404
0.4119020863043577
0.3990212350541668
0.3741400064525435
0.37504852324789095
0.3473518679541721
0.34991863645023835
0.32041373923403194
0.3402327954438137
0.30459948777269974
0.32158679155664094
0.296476423445775
0.31451467679940165
0.3148004451649101
0.333125390374921
0.3356383418135014
0.35628640052893684
0.3522703817824423
0.376085233127845
0.37951142491648
0.38407741008726504
0.4086012565836719
0.40942097937823607
0.44297464364324524
0.4488942079834205
0.4791541861309338
0.4606410564070912
0.4762920302067279
0.4515129850862099
0.4728492585436344
0.45894286185558436
0.4810193784486235
0.46604362114801157
0.48878598324583394
0.49493458174887983
0.5253174332287964
0.5278165375461816
0.5281794211741098
0.5175258423849398
0.5281217873266336
0.5066257781622613
0.509109293483334
0.4942802409058419
0.48586452476466435
0.4874547391606126
0.47909542797550203
0.48058167001633284
0.46886977552016107
0.4784437535396626
0.4823642872303683
0.4846388411318066
0.477776659213802
0.5015664831012321
0.49361367793741684
0.513422884171164
0.49991424557563163
0.5230776945444704
0.5099626261721701
0.5190402406412847
0.4977798553449488
0.5000551304333152
0.4869711198147826
0.4893078702788444
0.4742264327138557
0.47186526322378697
0.4473287799692976
0.46658079184410656
0.47505369580589524
0.483189705079604
0.4958362466368211
0.49273778906979127
0.5054602453325137
0.5083019822545747
0.5308804674987166
0.5342213968848564
0.5569644686091968
0.5348377362308013
0.5524133730030505
0.5838468167233164
0.8310285766371122
1.0
1.0
1.0
1.0
0.8863915314158828
0.5784631782215077
0.47046880135505253
0.4276583366939521
0.4184455012251318
0.3960083696304171
0.38034964476484967
0.3784516990937023
0.38415689581444734
0.38595008801846875
0.38574187268007
0.3737800986733162
0.3880162321578083
0.3581112556934746
0.3670989873035729
0.3605108717853412
0.37115517920545693
0.36134792419514455
0.3599034060472118
0.3443125401137474
0.3465128377025013
0.3265649800278517
0.36031554552991196
0.35743082686981964
0.40637762091312385
0.4133302138199729
0.4369374455572833
0.42629616061697434
0.4671491747085515
0.4731991326169059
0.5065450926023781
0.5219690844500293
0.5392381847344975
0.5495942383698383
0.5419541945176853
0.5436945885601592
0.5349680629619564
0.5265718153368126
0.5113074491239596
0.5186172726721237
0.49479466986612985
0.5038890044683282
0.48596849890002025
0.508103516738392
0.5047824585215113
0.5351483729992282
0.524332597859493
0.5498691265376575
0.5407036092261857
0.5704713400732524
0.5649623430922341
0.5794348615812259
0.5671070305686129
0.5818786599330454
0.5551456654216691
0.5613683365137194
0.5441919363343835
0.5452417906952652
0.5508513958059261
0.5447691559448857
0.5282256873802686
0.5249617434874432
0.5246496037939983
0.5177162887745538
0.5413318647723886
0.5287825077989083
0.5465686151883589
0.5284063989693579
0.5447954960560416
0.549096712945677
0.5790699707719323
0.5469360843825556
0.5744753829337252
0.5465999742524877
0.5560006320156771
0.5450608597489832
0.5449142676191596
0.520256900092533
0.5467560175794028
0.5256984247815476
0.5256081124490711
0.5133385438373324
0.5018252916635533
0.5248302108771072
0.5202600206180361
0.529373197642694
0.5346927915931527
0.5231261669830738
0.5562653437098832
0.7824389790495699
1.0
1.0
1.0
1.0
1.0
0.6564770480632653
0.5047836366953449
0.4558695433673822
0.41149031688302296
0.40768581003283516
0.38340929658278144
0.39174327271942416
0.35458707978061765
0.3638671666657812
0.3656360198924801
0.3565875015149318
0.3512501706896081
0.3645312419501699
0.3648144892761132
0.3742268440128883
0.38074155701515694
0.38170727219630685
0.3961865566028321
0.39931575029148847
0.40364891250605944
0.3906630234038172
0.41867655045780855
0.4095019936772154
0.4240817035277237
0.4069541801087042
0.4171517362090588
0.4129449449883734
0.4487189715108286
0.4504826280923605
0.4913808985479576
0.4790597234058648
0.511295311866576
0.5109518425834089
0.5372199853348022
0.5399823227947484
0.539911965348505
0.5321279663841538
0.5387624429648856
0.53594869825281
0.5423893824239072
0.5386945596100678
0.5411149916928729
0.5479941941951878
0.5295146804567374
0.5435362580437679
0.5206955990560524
0.5439182810328052
0.5298146815471585
0.5479073935820125
0.5327916347397895
0.554781202996215
0.5507843715625407
0.5830986356177733
0.5682738855069629
0.5881181840390408
0.5724497487584835
0.5832337258038434
0.5531236846699191
0.5567407143718964
0.5506708895025285
0.5553373770578038
0.5553461047511351
0.5512664413845573
0.5431915851420884
0.5443475267340467
0.5568950796603094
0.5513941063224712
0.5517744435571031
0.5592876362754684
0.5615933021477668
0.567352243769107
0.5963627490901022
0.5949958550692734
0.6043904691423959
0.5997674554611109
0.6208619654786529
0.5898651675964423
0.5987771194999774
0.5905208008529267
0.5979212339061817
0.5825621358791069
0.6109006501272785
0.7464625504158919
1.0
1.0
1.0
1.0
1.0
0.7747594565007345
0.6235031918008113
0.5563252959542776
0.55680001742511
0.5325368323614336
0.5278923431736481
0.51715069098325
0.4883525121815973
0.4869463351231501
0.45197173062682394
0.4667231455081768
0.44778525688339765
0.46013445815577836
0.4371756941248496
0.4449408121934507
0.41676444047332595
0.4619652974830729
0.4492863040342968
0.48431841327214153
0.4755158153955644
0.5083841705730464
0.5071016343949951
0.520929842155838
0.5256352340951738
0.5280095101285627
0.5469785997564375
0.5513995755055966
0.5715673082989255
0.5932555576631879
0.609685630267714
0.6155122255123123
0.6391142605917376
0.6150221714257404
0.6512229592074957
0.6295508208823735
0.6592325399679073
0.6367044450804872
0.654250058863846
0.6363630201175409
0.6584805863374461
0.6621282119319585
0.6898639653681311
0.6764234006037109
0.7002455382187855
0.6731826372119687
0.6881982407537705
0.6746121260804805
0.6847203690028705
0.6704855305549217
0.6729187169820916
0.6710554789230317
0.6643025147419515
0.6770998788727626
0.6868767501958992
0.707558267638262
0.68824522852978
0.692910990956897
0.6855057255407732
0.7031302924647271
0.6822905810655946
0.6938529757117777
0.6726358169355949
0.6725711357572051
0.6704334203828535
0.6915718277385178
0.6779206973070613
0.6920981431923253
0.673932434964087
0.7077851639982083
0.6826184313628795
0.813992615542562
1.0
1.0
1.0
1.0
1.0
0.8897767879483542
0.7287800576232506
0.6543997364599154
0.6224672203329705
0.5934773898998691
0.5900511574551233
0.5638595699867224
0.5691376880819801
0.550349598578193
0.545349404335909
0.5225072981236869
0.5273913608184135
0.5181416044816863
0.5272741578072391
0.5088650397532952
0.5318751270440416
0.5287415625537898
0.5571544280477656
0.5554792177162138
0.5724006894402398
0.5686187775876
0.5830973373973031
0.5783731508384531
0.580160963583287
0.5981889619042886
0.6052293562504397
0.6262510472241525
0.6375728117217754
0.6523943882972241
0.6570252415261415
0.6667258540386676
0.6665245628312989
0.6872554880537467
0.6771877386205691
0.6963436478572554
0.6825110409031959
0.7075011479348617
0.6945762355685102
0.7044091661833529
0.6987590538158561
0.7038796968497923
0.6878519565825021
0.698683327085638
0.6847649099236488
0.6933880226518062
0.6839820224012944
0.6843656266940765
0.6712060240518914
0.6848288332863786
0.694864236421316
0.6863152131276319
0.6975454758669652
0.6880575979756473
0.6982652019025999
0.6858101632858254
0.710861320074045
0.702902829151417
0.718641246945244
0.7043599505153497
0.7052922242230025
0.6898175885907765
0.7051924514576204
0.6913638118474571
0.7023518485020374
0.6806540146500508
0.7064072069528871
0.6840667094845527
0.6984274935594273
0.6904849902308298
0.6990429938299865
0.6943321570736443
0.7023917616375135
0.7085253176717188
0.7261129110447312
0.7142711967724287
0.7197960097802278
0.7157941950266272
0.7149813500776778
0.729048244636149
0.7168707427074879
0.7291556590865511
0.7305214628284705
0.8948665769502193
1.0
1.0
1.0
1.0
1.0
0.8287331694072074
0.7157940395668454
0.6835348861296993
0.6562152417101241
0.6445621832489702
0.630750505519383
0.6190584338348661
0.6090354601519374
0.5868385486300345
0.582761472839112
0.5766868938634571
0.579540111608559
0.5750950651826952
0.5758956008093171
0.5603243915000435
0.5785569299773073
0.5686173733770894
0.5881553730361634
0.5809850693557701
0.5995610219344288
0.58988550315208
0.6112382123991269
0.5983859784884367
0.6331561817162822
0.6202918279194107
0.6531694319700888
0.6411195383287835
0.6640648185196805
0.6664483172303118
0.6854362424057063
0.6831127926095097
0.6923886762307309
0.6863170187809502
0.6838751621943102
0.6805791645485518
0.6933678824479379
0.690899522694673
0.6896168932473954
0.696054679001613
0.6858147489127797
0.7118911653416056
0.7115312629052227
0.7250552921063141
0.7216171444071146
0.7265259974783795
0.7056209599998248
0.7053715437753785
0.6964422977519248
0.702453515327871
0.6870763080924794
0.6946117674133091
0.677011338947654
0.6953533583503457
0.6769626024627327
0.6983762663606381
0.6939761724041856
0.7008593200853928
0.7055355658879503
0.719608306519093
0.7147133844155686
0.7187364265769914
0.7236117342430486
0.7013645413776392
0.6999745963962651
0.6886892889647596
0.7095186579640819
0.6955884034985802
0.709266730563129
0.69034854031681
0.7277115683893318
0.8941437793461213
1.0
1.0
1.0
1.0
0.8606085566041329
0.7117135395889098
0.6827206497183084
0.646233167145641
0.6348499953811678
0.6030622936067169
0.6020178989894535
0.5857640063104819
0.5888483018879274
0.581297032747196
0.5720630674707833
0.5720656444038454
0.566232294219996
0.5672356862911033
0.5687794758279929
0.5687498964767179
0.5630883692311512
0.5828180283865091
0.5887558813031015
0.6068530350447932
0.5957276565562242
0.6113330870305407
0.6020152528287409
0.6128748671941249
0.6106865915477481
0.6305576138414918
0.640360760777123
0.6674402663323491
0.666802934591745
0.6767548450817534
0.6688914258111527
0.679615245608676
0.6841202981070487
0.6812096202119269
0.6901865846704833
0.6853932476632847
0.687431926551286
0.6926471566316182
0.6954963086494094
0.6942688414471514
0.7038856867054097
0.6828808607485272
0.6876397093597315
0.6754576867315276
0.6940756710350817
0.6786309370929156
0.6916384467310246
0.6796985732409409
0.6910660741469071
0.6740920881478598
0.687810992229488
0.6716301844231852
0.6962880535295186
0.6815953912053517
0.6859219368858133
0.6753134285273686
0.6862375939904233
0.6878780852604107
0.6905606276736663
0.6852763123634191
0.6848201033761816
0.6755171750859774
0.6818463612317324
0.6794629829772217
0.6817753972322614
0.6842973321156428
0.6714451960053014
0.681706663754475
0.6687212708393014
0.6878170056054452
0.679434990190678
0.6902723080016392
0.68213022451307
0.6893080152083446
0.6895590813475589
0.6981347719546005
0.6959351984526007
0.7013182297332177
0.6897594270317511
0.6849376522230699
0.6697430329962994
0.6764800390218232
0.6664774997491716
0.6714938668308462
0.6690970237421092
0.6648053668617023
0.6739458688676352
0.6703224626312092
0.6905185290270409
0.6767396539015227
0.6957961132067487
0.6965218767138376
0.72205923874723
0.7118461373457011
0.8352845943038145
1.0
1.0
1.0
1.0
1.0
0.7742839632671861
0.669036631164406
0.6286874716849276
0.6085038055142794
0.5949909013735825
0.596123342796911
0.5955703781515557
0.5864227061438176
0.5834464797603786
0.5768913665888662
0.5809399162768061
0.5906678454094195
0.5862221633521146
0.5913975067733103
0.5838223687859995
0.5910489211086754
0.5764704975554897
0.5869703785358685
0.5773724525394874
0.5934565946967278
0.5859723057983371
0.5999575640483301
0.5849037954814008
0.5997928909928574
0.5992455919784624
0.6228082214537422
0.6210817138097419
0.6407882949139009
0.6521982524045834
0.6691993905991337
0.6772979788427016
0.687813167844937
0.6788519686520165
0.6847939375568416
0.6739234807737032
0.6763355829261876
0.6752300814274992
0.6671366755323052
0.6769375688100165
0.663264172090906
0.669865098635875
0.6502642593801048
0.6646283111708768
0.6680245463704294
0.6812994199401261
0.6665699696712117
0.6845536143758697
0.6711411699938633
0.7004930825757285
0.6837009599312653
0.696997505850676
0.6823584039535906
0.6865510515443272
0.6716268399964138
0.6792900839506022
0.6631996023658457
0.672921844471264
0.6589132297882054
0.6643404820608719
0.6582577318921604
0.6568987453427976
0.660912037735654
0.6536629552843003
0.6629100640620508
0.6529011421341769
0.6666619659710784
0.6699982360837908
0.6763027181995321
0.6703341704425166
0.6682137456269739
0.6710294591124607
0.6783029787884882
0.6641667024105365
0.6709945048090521
0.6937960649010426
0.8744810599864682
1.0
1.0
1.0
0.9911138801003723
0.7208398736087442
0.6312824312358175
0.606379130410357
0.5933321635407333
0.5835360037019353
0.5727188699803107
0.5733564108546061
0.5625285182807598
0.55519994974615
0.5511666386685754
0.5529737448539531
0.5459124998800096
0.5455051027184329
0.531054161154364
0.533936946789398
0.5331801888368946
0.5452815021109699
0.540293465180995
0.5548295254903606
0.5605428189163754
0.5795787818340702
0.5835106654942328
0.6047079465809453
0.6112230021968246
0.6205349626230574
0.6263596734250958
0.6241128012438641
0.6286340201906832
0.6325323533795634
0.6246762335519203
0.623381346830836
0.6215725811177376
0.6201728976587091
0.6240245748312618
0.6206066854311565
0.6309633287244172
0.6213893157168103
0.6392826370419592
0.6302668533611758
0.6456384947675774
0.6359496957516508
0.6449375375116247
0.6343813306466642
0.6353861316484826
0.6240307710900568
0.6326321398423663
0.6167573816207446
0.6287773120681522
0.6189731621199126
0.6284668682022791
0.6274052450383861
0.6288706995079847
0.6249541375557415
0.6269661479748848
0.6369750105064828
0.6341230354924121
0.6348904929687514
0.6372619493276799
0.6327643971741518
0.6235845291128878
0.6234416897765074
0.6119474488546233
0.6254357621158753
0.6073324892823543
0.6212750724405582
0.6041517053774583
0.6186511633075146
0.611449938562907
0.6206675019063912
0.6107716130793089
0.6258805102764018
0.6167808304603035
0.6364709860061575
0.6411899556909891
0.7660535455255367
0.9019616620094417
1.0
1.0
1.0
0.843437507714699
0.654972524172299
0.6044761007876206
0.5704524229031321
0.5632782930691895
0.5419154508050394
0.5473785275813929
0.5293667389156409
0.5359897213772119
0.5132456548237678
0.5317850373119807
0.5220087697164512
0.5320420917191199
0.5197138193180058
0.535333711256392
0.52900665524068
0.5375261089341131
0.5256049379171344
0.5337198619417866
0.522369627326815
0.5348920523433685
0.5300830933163607
0.5360580469916985
0.5266481276663201
0.5299573037928622
0.530921691317101
0.5479518195978603
0.5596019595870599
0.5668013815609967
0.5820333088523861
0.5861287588908152
0.598583484998848
0.6108619259697379
0.6072301453946114
0.6020431249998017
0.6081777193935294
0.5925132920190305
0.5990023610002363
0.5883771623432364
0.594113256076757
0.583349327139724
0.5826739962300882
0.5785160770798179
0.5794351246987557
0.5768246481543767
0.5836924598213141
0.5810359494642174
0.5881769038952178
0.5866411119778223
0.5982364321271201
0.6010105039897219
0.5939575776470734
0.602728442240039
0.5928807796326503
0.5943892876071606
0.5836359600133452
0.5937227813720634
0.583640967560055
0.5825347568783894
0.5687652081806359
0.576269660172918
0.5740117233665546
0.5854620457525554
0.5675223549874306
0.5801313305595714
0.5671813142898866
0.5828236865776418
0.5790093006095873
0.5915161877167123
0.5918299295241354
0.5956466338533839
0.5952756210704279
0.5958136067401274
0.5911494746150925
0.680497631508424
0.8164831192255928
0.9653535788185204
1.0
1.0
0.8805132683440411
0.6665939819209145
0.5904059116085596
0.5498165201007367
0.5341211253062574
0.5173315327148509
0.5234302955085719
0.5062543223078808
0.5166014004770478
0.5034439115666626
0.5061733445316785
0.49248495855901836
0.4913849089624974
0.4811252660562603
0.4833548571610048
0.4744287700723223
0.48021422047609497
0.47429201197619014
0.48337163274880357
0.4813979855625659
0.48198467454313454
0.4859097903149479
0.48879388223281045
0.4938471855301998
0.4997189920386876
0.49743129842801165
0.4972231039812544
0.5132278212188053
0.5215224644558284
0.5446785072783931
0.5443223115351383
0.5594058177850633
0.5548506838621738
0.5617613825230714
0.5578180251097262
0.5652950512972746
0.5586848450373743
0.5706864055033563
0.5552949287134435
0.5596750951016344
0.5538650242606702
0.5530891454549006
0.5527483097325661
0.5555130984242396
0.5557453038122897
0.5605316035155951
0.5567806828025335
0.565076316263904
0.5714026951038595
0.5677420617696157
0.569727799015304
0.5605115922018373
0.5673633326514476
0.5563389013028537
0.5607275654544555
0.550457450211255
0.5627399131434337
0.5492543998175763
0.5583325611833025
0.5451480752218101
0.5585858880946823
0.5514881662935952
0.5598874371566493
0.5551446683416017
0.567828064993977
0.5560759936198962
0.5664867885552626
0.5651333340641879
0.5691108252598711
0.5729393034949876
0.5702639603547561
0.5687817367704201
0.567795836263934
0.5633818406969987
0.5638300135011809
0.6241940106127298
0.7462556209240429
0.8920137265104138
1.0
1.0
0.9679367720588733
0.7661423930558662
0.5918956027060809
0.5471666989232848
0.5024196843065067
0.514236656683084
0.4879393903193103
0.4986279224940448
0.485309256317591
0.49102984828323243
0.4803373945099386
0.4844038196370349
0.4698853577222134
0.46943351781608644
0.4686736583227141
0.4651417435358368
0.4671684286711601
0.46135524801670413
0.4577354906698856
0.4549667968815476
0.4522321013802652
0.45681011698776397
0.46105005176905
0.46008742178194745
0.46927130351392243
0.4627915430034214
0.47885688806770277
0.48317685642104874
0.5018006803412592
0.5071603671431084
0.5285372514204928
0.530639126850416
0.5441552976870448
0.5344535524134645
0.5463917871827453
0.5497900718492682
0.5503141510362368
0.5471673872628136
0.552272894600112
0.546623427091501
0.545381053739606
0.5434146921028452
0.5401462283723326
0.5480780601343889
0.5432907812498766
0.5473827091145946
0.5410575275784958
0.5461509440669446
0.553012408850859
0.5702705357456928
0.5574382375245689
0.5686664972872653
0.556255177313644
0.5582745366902434
0.549914259491626
0.5632191884319293
0.5503924280929771
0.5612571549456103
0.5450365776787022
0.5470309600156108
0.5456373892016743
0.5449803019986537
0.5399126407152761
0.5428135300395189
0.5351066869217046
0.5368020813059046
0.5463188150091776
0.5440268499325062
0.5513542594485977
0.5553076418290043
0.555886128298288
0.5536699165161207
0.5573334603701063
0.5478952937193435
0.5453030316129782
0.5361204272009805
0.5454092827251878
0.5291104439773748
0.5350737578576306
0.53100976745258
0.5364427794690075
0.5313693948304288
0.5659241212427957
0.6761454810173876
0.8448024705628068
1.0
1.0
1.0
0.8226737539210187
0.6136018858121537
0.5524589990090936
0.5115700025377374
0.5001470658394436
0.4719765867585671
0.4633784846557897
0.4571587326336415
0.4435317227739121
0.4493170372389949
0.43311562235978496
0.44155880022770894
0.4319274087092233
0.4447639908135225
0.4429968451385987
0.4546152154104143
0.4426179776048761
0.45481689295372085
0.4499978157394512
0.46637526769900794
0.4584705005647079
0.4709192891059427
0.4694969006027054
0.47360515763547284
0.4757746225203065
0.47662297317102703
0.4842004119611616
0.4931124909282367
0.5085828938776971
0.5169418732201512
0.5254867330156303
0.5203492541225284
0.5360748809353467
0.5300099400591799
0.5468701724846597
0.5319724097656148
0.5455278482583801
0.5424815067854982
0.5563409937116811
0.5492987434257979
0.5559320614295814
0.5425756957290584
0.547117948840339
0.5297535297849921
0.5435086000135982
0.5269358073593035
0.5321846227039508
0.518178731047382
0.5202195524366005
0.5096065923471029
0.5202028644749117
0.5227489627851801
0.5309004626877003
0.5192961510612097
0.5326120175414234
0.5369214263396532
0.5417259908492091
0.5532155574748232
0.5426986357435948
0.5552200897362357
0.5330726267673093
0.5326689067408383
0.5181195264474165
0.5237551571073693
0.5161608689050015
0.5202376606175341
0.5119455807409977
0.5257068358385181
0.510089217038497
0.5304824016965375
0.5251288293746289
0.5351204719570593
0.5333523270565583
0.5998000767323496
0.7584360206479819
0.9230928168058357
1.0
1.0
0.9730707453966513
0.7225942152392038
0.565986052653716
0.5033026077521912
0.47811695565108103
0.455627117969326
0.44662821987711354
0.43831434098334876
0.4283344035867998
0.41598423570061527
0.4234394386899247
0.42381412002709257
0.43562972649325643
0.43091427414663935
0.4360989044467199
0.42630361196576994
0.43836111899920027
0.4397910889300779
0.44167611053631994
0.4439667967469525
0.444021481236029
0.43718327251391587
0.44220068077681096
0.4391984440312754
0.44451064076254265
0.44657745525767245
0.44710589260770917
0.457757008525418
0.4552125161823626
0.4789451961457786
0.48665926461358194
0.5039910539039552
0.5135702455703369
0.5148839628072024
0.5159494636542988
0.5257369572798607
0.5188890716061471
0.5292774106928393
0.5171803634425544
0.5173660220436798
0.5046554691964383
0.5197616104913456
0.5092539493063526
0.5128738760233169
0.504827940167149
0.501716062289629
0.4987618323804055
0.5046466534424322
0.5115687423474543
0.5122869356663662
0.5114466782539037
0.5184114527459736
0.5255076569853814
0.5209429401526718
0.5220413228182007
0.5090113999514029
0.5185806696291065
0.5012718712434291
0.5126664660929567
0.5021526691416133
0.5123823726026904
0.5001714417214976
0.5040529005911119
0.4921074597566791
0.4994741064742144
0.49816743453357615
0.5044280176362499
0.501683337041704
0.5091507941390615
0.5077941390565217
0.5240342778620615
0.5149956597694163
0.516699335555374
0.5076540215626787
0.5072622737687411
0.4987444539454735
0.4985049280616952
0.5062981006938352
0.5107319611191279
0.5127428280662744
0.5020393750290513
0.5082035940168264
0.5029857787933214
0.5459869887189059
0.6871003920745948
0.8524140790113149
1.0
1.0
0.9762321654316501
0.7341743172008838
0.5512652295738876
0.5022562684528635
0.46610074029070275
0.4586057430554914
0.43384819524333434
0.4389479997324258
0.4243063524365406
0.4288886154442003
0.41512587086924
0.4163637937776959
0.4129071477245142
0.40104708822977225
0.41190692994799327
0.41156957888740886
0.4086932149401166
0.4101694289250314
0.41006503733684196
0.41709712782519287
0.4366631628008159
0.43119417101643764
0.44523329397317246
0.44069727143389753
0.4526959226591954
0.44554439492899256
0.4622965927112245
0.46172813182503775
0.47713881625854027
0.4765454852357114
0.48534903849295724
0.4918077475374639
0.5043463147769057
0.5071424882335485
0.5118860907021539
0.5072310083824858
0.5132288531807542
0.524238021943011
0.5219968263391408
0.5310652700882115
0.5235828056287921
0.5339345356678546
0.513420695418619
0.525028591344262
0.5136014706705192
0.5219264131098625
0.5087945474662274
0.5086333674588023
0.4957133416139768
0.5082662095330779
0.49976448491289505
0.5093594971449644
0.5003537294515363
0.516340886026627
0.5079278788082127
0.528172716040381
0.5130191718549697
0.5286518362546864
0.5196378570241369
0.5185110163320759
0.5194803860614534
0.5120605603714059
0.5123484064280283
0.5081093789322279
0.5060490455405141
0.4998609335916445
0.5033682236481549
0.49776661581545945
0.5007799404784944
0.5075753523608333
0.5152511336666561
0.5096267419483934
0.5273969692753993
0.5210726012287844
0.535888932839193
0.5301951876512871
0.5336151058496281
0.527691357159091
0.544592153503461
0.6707084862141889
0.8352939954809504
1.0
1.0
0.9863956806082026
0.7518675929297427
0.5521007000548268
0.5013737516647102
0.4721154714850355
0.4652807939713387
0.4532074703408748
0.4479660883131378
0.45280985537584373
0.45285965798136363
0.44957501618348683
0.439700187890289
0.43218870022494366
0.4202873540818352
0.42422308095609756
0.411854873637305
0.417265032862136
0.410584187788423
0.4210812846859825
0.41285434049169945
0.41578638949684577
0.4206986424583709
0.43296226983571984
0.43272760771797963
0.44147947643418134
0.44073339081582824
0.4534567694591434
0.46375913016309733
0.4763178260031803
0.4993302550548477
0.5010646491048467
0.5105531020395799
0.49804144363487934
0.507967416067012
0.5136937225640311
0.5166689809858422
0.5102841310635716
0.5158418519774753
0.4982168411563304
0.5158359755319748
0.5077203030747099
0.5304214205086297
0.5270846348419117
0.5513530903156608
0.592776710907426
0.6762622132018798
0.7452857050668659
0.8308484921429022
0.9114562688098818
0.9888666909421087
1.0
1.0
1.0
0.9991794379645759
0.890813745616979
0.7407475304469763
0.5040884697060728
0.3915075092990389
0.3740601728908407
0.3497725069827404
0.3462377495303718
0.3225316401088245
0.33168193035216365
0.3128565068397989
0.3193233435883817
0.30222187985681204
0.3039802630983915
0.27986920542455007
0.2844503223633571
0.28043019764957733
0.28894943449651983
0.28620588162383714
0.2958525392771319
0.30629581557884433
0.3248554681132706
0.34933794790935757
0.3716983929145205
0.3930767761017121
0.41962894153902874
0.4428250434815796
0.46489827270724904
0.47885003218737043
0.4921248455937315
0.4932499248827423
0.48702845504373526
0.49940570024356834
0.4886505520398078
0.49565053123695746
0.4823049707856944
0.4859068920694476
0.4781594330847513
0.48715905375301266
0.4936141509749735
0.5002183907126633
0.4988339550670835
0.5058070599892981
0.5019126020769971
0.5194022977372594
0.5179756024449225
0.531124443352745
0.5237576010975239
0.5218551633545634
0.5135146295712112
0.5120960650457765
0.5088632768960535
0.5096218240858654
0.5050005313969611
0.49902380948438774
0.5025965416657582
0.5006658541792935
0.5101498553947363
0.49986291676776273
0.5177644634692438
0.5138941529361185
0.523884846841569
0.5243932120983281
0.5329684660736839
0.5269685495087116
0.5307805191797149
0.5213632617084527
0.5221949745201211
0.5035274809993578
0.5112316404733577
0.500474576032427
0.5066170291369722
0.503348730912899
0.5000216984085873
0.507435458033847
0.4969056859299698
0.5085422857501445
0.5174762183028961
0.522678853318841
0.5178673127519667
0.5240906553557193
0.5287206007828532
0.5416816388081857
0.5351185795182867
0.5547999160117316
0.5348394922063286
0.5758812003584207
0.6965796449506022
0.8568570653096952
0.9934870000983963
1.0
0.8866432654941192
0.6323709524213137
0.5156815791233008
0.49680336460276153
0.4633200767304423
0.4631571633410264
0.44896495281148513
0.44608520207498537
0.4469062362958308
0.44572334464425734
0.4456854052928437
0.44172736999146683
0.44238406897580085
0.42954140583599515
0.4348197924990453
0.4325497351450632
0.4422380141979299
0.44150438478004117
0.44301213404221534
0.4379478112724585
0.4448734639998685
0.44425022010753157
0.45850877796688694
0.45310461606390084
0.4721239661702604
0.4589102639866681
0.48698020247342216
0.4928664893038766
0.5056619881968982
0.5078826752062757
0.5239865529957599
0.5272806025555766
0.5320553655745593
0.5300414367025054
0.5344631017035344
0.5288178028591138
0.5218192390776294
0.5148512112236894
0.5097177718788244
0.5197553376815145
0.5090192399071451
0.525427802038017
0.5226819792073005
0.5387437723994226
0.5353761490668988
0.5479861732527749
0.5390629507983854
0.5417940652958179
0.5208880456510767
0.5319469310718702
0.5201171518899941
0.5255963587102831
0.5095737223572843
0.5140604692967559
0.5119633501831748
0.512619631537217
0.5158744432738269
0.5145609278380321
0.5157954044608125
0.5191688602761056
0.5250102985285201
0.5270912811256887
0.5284797001234776
0.5280007917009372
0.5330202072328247
0.5210168857579843
0.5238253195515804
0.5131987147259636
0.5133840559691949
0.503738485560099
0.5093576984168011
0.49936194603130124
0.5033123572426847
0.496408858560879
0.5073310601886525
0.5017138322845212
0.5148701220857668
0.506777352199209
0.5108986408499236
0.5162560414401769
0.5302232516320522
0.5256644806634597
0.5321563117146838
0.5361667235068601
0.5344566616160119
0.5215405053148929
0.5644209885271104
0.7105666513533281
0.8480066519078356
1.0
1.0
0.9419375712349904
0.6817195839574028
0.5446820926296636
0.4890984877545314
0.46941288042417906
0.44749661067272417
0.4460125949890955
0.437599187960927
0.44607353509303715
0.4386424091795079
0.4426698129575556
0.4320738874024254
0.42096259723195323
0.4143952068033319
0.41781398913795237
0.4135356664449312
0.41867141222700505
0.4092875532434276
0.41286146993061007
0.4157039426791206
0.41379394502822553
0.42627895066881205
0.42236510068007105
0.43368914453977114
0.4291722256080174
0.44383648362732675
0.4426465727965116
0.46404994486936857
0.4695873352976007
0.4849559707879962
0.48392580287781595
0.4920340017368196
0.4927417056336891
0.5007998502157999
0.4940385284786741
0.5052659244275379
0.48798788311713254
0.49069266514883936
0.48671339458079965
0.49769086574448157
0.49225968162783096
0.4982773437572951
0.501041795322432
0.5028390936643438
0.5061499220682941
0.5110239990180248
0.5153763654334365
0.511903570700965
0.5131493018698386
0.5012283552718041
0.5091863885830806
0.49786785166926145
0.5021613732979472
0.4946064948510779
0.49171104340461425
0.4874630487796138
0.49588299268702957
0.48932764143674684
0.5020224292189605
0.48824724312555146
0.49472876092173446
0.48476524502139695
0.49104493679929295
0.49793920819003884
0.5030552354742059
0.4986723417376444
0.4980265052932479
0.49395836289858347
0.48924959482070624
0.48942766969295937
0.49392825630424275
0.49361397013944985
0.4897668628326815
0.48734402307316105
0.4798060055891069
0.48720030557422983
0.4896258950879506
0.48990028637808997
0.4864312781040261
0.4918869706362832
0.4823998139861062
0.5005953164412813
0.48943299673688845
0.5046831108644676
0.5022493214061459
0.513752565735569
0.5053409498673614
0.5431799716911642
0.6761910388598322
0.8396455425551711
1.0
1.0
0.9815955610964606
0.7520937701709893
0.5451973105369105
0.47651884315488474
0.446284148402477
0.4405771990407209
0.4254157566500769
0.41752857112185227
0.42102297759238433
0.4126612264255155
0.42101544973841476
0.4121783016367366
0.4149185846181229
0.4058464618532359
0.4046071974301887
0.3916634628615677
0.3892132479114145
0.3903527018800676
0.39519912592426293
0.38877611751151886
0.3913934825006791
0.3883551470311142
0.3959760640519362
0.40534827379100397
0.4136358138946445
0.4239122248409424
0.4221910308971545
0.4251984096192515
0.4369580535780223
0.4497455478051733
0.46523141758366127
0.4807105339967085
0.4741044393066557
0.48614032669775387
0.4766967410312707
0.4907933772545195
0.47969785790126523
0.49752906160163723
0.4844297073001556
0.4786266962122907
0.4679177488985866
0.4746139808150077
0.47314683445100136
0.4856088695478292
0.47601649396001083
0.485330934989549
0.48179627109548184
0.49999448817803505
0.5008615737980827
0.5073206378180677
0.5031216806613324
0.4960729599448374
0.49524794994851795
0.4931379120525586
0.4878464509821886
0.48609195510947545
0.4860848138672728
0.4727013138976449
0.48007965150451176
0.4705951921863184
0.48873389531520656
0.476293251924241
0.48961343905739174
0.4753467233365861
0.47956552530869434
0.4799484592395721
0.4947693443112973
0.4941686121057837
0.4957207162553443
0.4916927127183107
0.49729672985093637
0.4764939592585236
0.48473835007806193
0.48019664304439774
0.47995376184941696
0.4778902462534239
0.4672287862589518
0.4689823254309869
0.4627670629281952
0.4708304976321305
0.46652097814124793
0.47511031619213784
0.4732842474695059
0.48357029018071673
0.48846393413729305
0.5062745591130248
0.502430726132033
0.5098445892901051
0.5587278729046721
0.7309521441403403
0.9003834884864329
1.0
1.0
0.9821876295501525
0.6674928769852659
0.5122144747079582
0.44435169939920643
0.42122102952087515
0.4098448564272097
0.40121499205774463
0.3979194676575354
0.3860604855634834
0.3964892555246617
0.39941773057393987
0.4074822846512022
0.4016231765940478
0.4044752206537738
0.3940187256640395
0.4010403844522209
0.38142098422923765
0.39150861277122456
0.3794257131585133
0.3861446995465355
0.3744914986237468
0.3832421544333224
0.3638401003660475
0.3843284447529106
0.3819745616999219
0.4042245767659803
0.398698900100656
0.41954799372003465
0.4221171189529917
0.4481398003423472
0.46385055180373647
0.4774696354791145
0.48415584503600473
0.4929811918274297
0.4849270009888679
0.47990339713390223
0.4844198115951944
0.4772459052372134
0.48643597369690966
0.4716153298620018
0.48371587532650756
0.46758048494968696
0.47320501936556614
0.4693469353353225
0.49100033887141603
0.4762249875719876
0.49617865747455403
0.4834912985910987
0.49787021744943116
0.49233059847493427
0.5000115583521314
0.4941934579657931
0.5024665582681165
0.4923669437050565
0.4914245977376447
0.4878935924024237
0.49111822212423845
0.47717915156077
0.48417683326700295
0.4843010278237288
0.4730222472594111
0.48077097412890313
0.47743425808521867
0.4849574796014181
0.4827590456561871
0.4853063872082621
0.5782590324368854
0.7909907779036758
1.0
1.0
1.0
1.0
0.6254611759979698
0.49075501630698576
0.42906707268418715
0.4193075730323071
0.38842939563015405
0.3983254356300513
0.37173424453243975
0.3689323706829585
0.3569874335793527
0.3453594341704724
0.33583221540036534
0.3426031903824145
0.3371289457195982
0.3403114095444602
0.33881431103182713
0.34043303830631266
0.35650042789512304
0.352082502806464
0.35869168554331476
0.35562273436548725
0.36361950754235517
0.3481873631589799
0.36027006074366785
0.3534191087763573
0.3739534188494213
0.37054561693437116
0.3946764728100409
0.3871425064281677
0.41391142267616915
0.4149498416314798
0.4408794710071553
0.44575098275566916
0.4652025900590654
0.4567171621983763
0.46441238227176485
0.4670980193738461
0.4739022501313813
0.478776040321399
0.4711612068008848
0.474319020555516
0.46881755626269805
0.460636619687954
0.45150773233111396
0.47523485714649016
0.45202106543081333
0.4775098216943016
0.4528501556598531
0.4752776580276679
0.45037871767113813
0.47350813969010747
0.46330127935718773
0.48509773954528024
0.4859939829081636
0.4937577069625042
0.4814101167343918
0.49553044678450336
0.488258846726492
0.4953650562372192
0.48368179144806434
0.4992803726956625
0.48702466997330474
0.47604823999273654
0.4636337995944707
0.4600791817594894
0.4658272517548432
0.4619632228797742
0.46433175043212005
0.44562706603591096
0.4582801361508255
0.4441400922721952
0.4652318659674083
0.4450737367459251
0.4729324543785938
0.4617513156792567
0.473627826451496
0.47074437863696605
0.4894360984790384
0.492745403090139
0.5007379470213844
0.49578360133375926
0.49736456107777743
0.4838137157117345
0.4740955782927026
0.6089281018811354
0.8186776184883751
1.0
1.0
1.0
0.8817012097808021
0.551361639737517
0.4553777207593385
0.40812794368025995
0.38671329727176584
0.38568093789766333
0.36844039901095965
0.3796200177491403
0.3591516253857508
0.3726457768906081
0.352274186825551
0.3460829749444492
0.32391681990732024
0.33569518990067976
0.32573878130499273
0.33552769559965734
0.31838790563001007
0.32967758573698325
0.3021095749019381
0.3246694711786232
0.32544746050532397
0.3508626628156368
0.35680659681407534
0.3553301778924058
0.37889095309994814
0.3847545600128493
0.4164701391775294
0.4202983111307839
0.4481567872775855
0.4487270350796807
0.4561670743994113
0.45499256178812075
0.4720565932670636
0.4464526422765349
0.4639919288344931
0.4356888262447035
0.4470798040830829
0.42778278353054294
0.45689910885748236
0.4455357500767695
0.466174088893655
0.4535545388074385
0.4736232483138457
0.4672505763767383
0.4840938284906369
0.47811698594562924
0.4954560625789573
0.4745629695168311
0.4800782957936603
0.46170544503599353
0.4606828073479277
0.4692777073890861
0.45790138612080594
0.4520917061026686
0.4442100277600131
0.4562416093792182
0.45462260630410406
0.4608432869583428
0.4606134165606427
0.4782225110242505
0.46431486963385876
0.49017174733520125
0.47061936523584125
0.49048324662575926
0.4686845657976015
0.47481941456445104
0.45897652012201473
0.4654727539792223
0.4634598983590519
0.46602219106687304
0.45507584475916535
0.4726856092632173
0.4621842160781616
0.4657647364102468
0.48511810290544755
0.4816677913384412
0.6367397493883626
0.8978531846940008
1.0
1.0
1.0
1.0
0.6902266629167719
0.49423121622585936
0.4393722378304564
