MLII
0.5
0.36510184810468094
0.5
0.26006599841708444
0.4325509240523405
0.3493070680653659
0.35639660861938616
0.4091077844301731
0.4200817772036739
0.4297001479910579
0.4279648526794893
0.5263366951795451
0.47312759139230404
0.5628930261665731
0.5337849882041532
0.6119830517745333
1.0
1.0
1.0
1.0
1.0
1.0
1.0
1.0
1.0
1.0
0.9433463476777713
0.7766995425695514
0.606658371846454
0.4477564530618987
0.3178509689040992
0.24081645864365758
0.2604155051010009
0.2741075471097038
0.30985981538719354
0.3504703865188879
0.3866798305003355
0.388835894354295
0.4053515839902341
0.39859174149036825
0.39958852338898654
0.3875561656862934
0.38867795974576297
0.38484694171919814
0.394564886835857
0.37393220031248575
0.38196621528757124
0.365274759468883
0.3771872957356096
0.3755209933514377
0.3917414078094259
0.4021297355770905
0.4227660440936577
0.439190590200172
0.45659783144933375
0.47897303568878485
0.4910496837488584
0.5048767255457987
0.5061048516165398
0.5050481548767343
0.5023956686132115
0.5033660931643512
0.5018622112325397
0.4994593972597222
0.4990717857570549
0.5014251026213509
0.4890847897509942
0.49834893766114485
0.4854645088566699
0.5043603614057323
0.4822748415438866
0.48941258507855717
0.48386365665017117
0.49079873629212933
0.475891597442127
0.48875204204973066
0.489435053133129
0.4956277557856358
0.4918292730302962
0.5154098487358298
0.4845563326612047
0.49897935516433306
0.48393505838938883
0.49280638108908487
0.4969395397432292
0.4577852864456754
0.4887283425204566
0.4467130074547079
0.5084523797246533
0.4614168052154547
0.492368350972557
0.4936538745861282
0.5311867007652872
0.5099826987827292
0.5678247373986796
0.5103141463098918
0.6461173417811471
0.5867644879319067
0.6417355877178859
0.5703661105648924
0.5410962306703233
0.5116159171767589
0.5294189947109447
0.4871307207745884
0.458962880261961
0.4593722913510462
0.4708739980314102
0.43262570642246995
0.43708566031616136
0.4757343929281122
0.4823826576268447
0.5775791804618533
0.506616855886115
0.6022569719665085
0.51248915271418
1.0
1.0
1.0
1.0
1.0
1.0
1.0
1.0
1.0
1.0
1.0
1.0
1.0
0.8673052647565542
0.687643331233206
0.4861903119313401
0.35024468821053967
0.24324882872707695
0.14214217947981403
0.17896875526755598
0.08183727364301677
0.09006531818257404
0.07219288723310946
0.0788395411040069
0.013041996315086735
0.0697963796602333
0.02537955526720994
0.06879207874769903
0.0
0.03372119209969
0.0
0.0
0.0
0.0
0.0
0.05895775563323698
0.028085849482368454
0.0781283289382407
0.07431270533764982
0.09387810692930998
0.13623500445623113
0.18294134229746323
0.23654232836969052
0.30911856277469874
0.38852413584701806
0.4325509240523405
0.4391805757391281
0.4545271256008146
0.48781064468706675
0.465371162114551
0.4919459619447369
0.47066156338918175
0.4898726615830398
0.47461162925615286
0.49382063391965714
0.4749226790113455
0.49315645200874936
0.46322608629682077
0.4920315872718214
0.4468847072729722
0.4564740598488882
0.4485246922715338
0.4405284216795529
0.4325509240523405
0.44693426609665493
0.43582726767924385
0.4579557920568539
0.4484103818777654
0.4503321478673385
0.4774808391600199
0.46202269859023615
0.4947722715751805
0.4701545067105915
0.495765008899023
0.47878254534839026
0.4977738060831055
0.4679768979503017
0.5325856618376277
0.45203750791632036
0.5291025995830767
0.4459313940423553
0.49567781463569827
0.4920209049569804
0.5151448160062249
0.46994761514689615
0.5089393512221728
0.4957001865073412
0.5620981746069613
0.5571594449758117
0.6008849034672613
0.6287286950458215
0.615407517984098
0.6088569988722103
0.6065993851050051
0.5614198622517137
0.5304816238716503
0.5728272698403094
0.49942176286794276
0.5055864191918082
0.4606983787631175
0.4647764463417688
0.47887872801425846
0.5022934472835275
0.4988534192071886
0.5762981695350666
0.5258864638176399
0.6071325683196582
0.5736823929741093
0.6250778482821061
0.8030619759998219
1.0
1.0
1.0
1.0
1.0
1.0
1.0
1.0
1.0
1.0
1.0
1.0
0.8653810777505484
0.6714919876181403
0.5075677126653639
0.41228607369098713
0.294811183055951
0.3105390531516407
0.26751568991087044
0.27512991237166207
0.2005696596731567
0.27896949432906326
0.20644367680069817
0.2239022528015994
0.17530663702823684
0.17653436577160603
0.167654032753966
0.14648676087054485
0.10904910623381445
0.08546008071281523
0.04340710091944322
0.028202038255382166
0.0
0.0
0.0
0.0
0.010422798158229352
0.0
0.07660606850997294
0.12864190296072656
0.24150582027538398
0.3062234040052572
0.3998819355631541
0.43489714593363604
0.5171041812036277
0.4966084798084898
0.545003759161135
0.5277533747526144
0.5435093710813637
0.5393428700940481
0.5457072839924966
0.5492100575893691
0.5589988509557431
0.5319087229713044
0.5442134674865626
0.5349414490989877
0.5238468265266183
0.5493753331677986
0.5280582654569856
0.5182012264153706
0.5000324461442166
0.5368670935737689
0.5172506707620085
0.5495955326685632
0.4964335439504158
0.5457134879556564
0.5197110414868316
0.5655530321494268
0.5319949618229333
0.5574198389641605
0.5081981835434906
0.5755491832368693
0.513333386304178
0.5677356327687282
0.5214019222766161
0.5428022360550103
0.534803686037453
0.553181711909182
0.5192223780020642
0.542202605935352
0.528449225791824
0.54984229507738
0.5676729327969425
0.5183648361300731
0.5548367527054461
0.5631982939015832
0.5838307736206179
0.5790794754995001
0.6540080149019235
0.6169933076896147
0.6775175637069535
0.6036897336269161
0.6244483310251344
0.5514291594147386
0.5679627591109708
0.5312695394809335
0.5296742261331973
0.48266365940055644
0.5094813685057848
0.46514240346315744
0.5189057289061874
0.49111435247780283
0.5184805676336096
0.5205554047632572
0.5685401828863286
0.5642643020364091
0.5968716038525113
0.5582821097954186
0.68302437288491
1.0
1.0
1.0
1.0
1.0
1.0
1.0
1.0
1.0
1.0
1.0
0.9972619974545278
0.8611743403472861
0.6102175110704398
0.5206487286156574
0.36146938300024717
0.3233492781962365
0.27034495651605595
0.2826065883645945
0.2260457068008658
0.2553678936559216
0.18049187553000814
0.19723880965710236
0.15736175769682928
0.18373932881139393
0.16457057206191622
0.12181935864282271
0.10238533792191032
0.0676222548396419
0.05738185235479261
0.04579019629027847
0.009865499710176539
0.0
0.0
0.0
0.0
0.0
0.009099198997029222
0.024505779876138067
0.14724804465889166
0.1866618326126966
0.2978905734635739
0.37234758076018937
0.45329892338742195
0.47581871931618097
0.5191907486603364
0.5032079075117812
0.5548362614007043
0.5008203385328518
0.5349683346806053
0.5064495572986567
0.5291505228894604
0.5156183019107596
0.5128210788518262
0.5017162333950376
0.517344499557595
0.5063027505914806
0.48541938522372546
0.5021497965310157
0.48999312956254437
0.5173097381820817
0.4836182750184058
0.49747696651145545
0.4839981690958249
0.5116192621240704
0.47642393237029335
0.5146617702776954
0.46913587001809703
0.527612400955812
0.5041768725574218
0.5335248364126618
0.525411324958901
0.5415412604779862
0.5052930706243518
0.5573036303261861
0.5357095539668587
0.5223013712180394
0.5214168852296
0.5139431678148985
0.51516942325345
0.5121406444144074
0.5018801645656338
0.5010012788732178
0.5488401266322785
0.49050307262439025
0.5461970646876201
0.5252545085346632
0.5791020629924372
0.5655191388094962
0.6229400705283119
0.5743571533115794
0.6491500489781276
0.6048220178321633
0.6303485365256635
0.5572353394843274
0.5759001374241806
0.5758416217266014
0.5594114798664162
0.504895492958916
0.505868243670655
0.48750801500397056
0.5494526274570528
0.4863842011454108
0.5057322997879086
0.5500298381888427
0.5320118843283506
0.5812768195507545
0.5762879960309624
0.5913761461244291
0.6840539957211782
1.0
1.0
1.0
1.0
1.0
1.0
1.0
1.0
1.0
1.0
1.0
1.0
0.9136294223728523
0.6729364682697222
0.5188451993972515
0.3615315344692177
0.34202959156979973
0.2810361013935684
0.25799493828932035
0.25897819756870494
0.22404537649037484
0.2158615488900642
0.18507235264559493
0.15914126825010336
0.1694450888771976
0.15091908789642638
0.10180148696828328
0.1062521460365898
0.02282612119032388
0.023330079417169892
0.0044268911027974586
0.017975419684072326
0.0
0.0
0.0
0.0
0.0
0.0
0.0
0.0
0.0
0.04485492840887373
0.09796251824896149
0.1865921169042629
0.27258605708507977
0.34371934769721724
0.4164608970097522
0.48774964203523197
0.5335661509127584
0.5487947182134362
0.5578590839474251
0.5210469469617405
0.5746229398947936
0.529429743889328
0.5703543938264014
0.5371687184384937
0.5530808181836332
0.5134360058859422
0.5675594827819108
0.5179781013617321
0.5522189798390921
0.5222615828972879
0.5343539906358871
0.5291024837743933
0.5492019355321747
0.5117903156057644
0.550154183949807
0.5259344098413413
0.5234307885326852
0.5348085439654511
0.5353710890454189
0.5350112592149123
0.5369686136321945
0.5450467557051432
0.535359691524538
0.5612317734718082
0.5458185847685573
0.6032933681582111
0.564300205069111
0.5838507862100836
0.5535549363175047
0.5910414225103098
0.5536021292088026
0.5852009263620852
0.5499961896418915
0.6227130494005165
0.5857226178529464
0.5952886898685682
0.6090826181055992
0.6453744233399218
0.6404819397840216
0.6638906646637095
0.6572274321493055
0.6682466440440091
0.6409823931928444
0.6122913511867791
0.6216862795901104
0.5678020828151609
0.5828540442456284
0.5221142173137434
0.536005927588996
0.5262727599525829
0.5429932872255956
0.5244318501750471
0.5633952360394743
0.5620714468642432
0.6083714294285825
0.5826896792140298
0.6288203352708299
0.6402486336866545
1.0
1.0
1.0
1.0
1.0
1.0
1.0
1.0
1.0
1.0
1.0
0.8861861366838351
0.738132580245501
0.61678257920869
0.481196507152886
0.4112956659399106
0.33209895887181295
0.3525320544819759
0.2981257143120055
0.32927992190643474
0.2631499724892986
0.2960757221258435
0.2479279807842063
0.2450684251491523
0.2230244845194913
0.22307666042884922
0.18353733861271765
0.17911433483352424
0.11259505965368084
0.1251024814268123
0.05397625273857143
0.07341888882947271
0.04423159083588244
0.01745329412118677
0.015309395549499349
0.007885588417008371
0.05475899026939555
0.08676678165735785
0.16009669354966966
0.22220101341051768
0.3294578240373366
0.4021698555190859
0.49202060944827286
0.49504915377811065
0.5666071598522142
0.5432692241364935
0.5813412220332427
0.5510889876272667
0.5649878199997149
0.5427817510992449
0.5655511869653546
0.5376651097764131
0.5691768993096844
0.5280163298800495
0.5565093370714385
0.5366878807535493
0.5320081524120248
0.5471714423662335
0.5424368871440961
0.5492756954429929
0.5523395415234206
0.537508149460902
0.5385837220781005
0.5468647871971394
0.5385677913548789
0.573145113686714
0.5461568139431409
0.58428941463477
0.5511583165290141
0.5824432536338264
0.5709214952657501
0.5818674887346653
0.5475492894430543
0.5784989429160295
0.5314587662184642
0.574270922095402
0.5265167718358674
0.5581933462165318
0.5533690525295973
0.5720586864115986
0.5615427213500428
0.5773101896051572
0.5996001449808641
0.6244957260765245
0.630845481406312
0.6508269770394225
0.6573418567516441
0.6599861858654144
0.6414692251617321
0.5868749773989089
0.6245681251517929
0.5559119990744208
0.5674490759476595
0.5151440967487991
0.5381078686976821
0.5390208571108589
0.5428036706146976
0.5173615526361407
0.5630079599808034
0.5670033836197581
0.6046778367617793
0.5983984493480778
0.647112093607544
0.9274590179825669
1.0
1.0
1.0
1.0
1.0
1.0
1.0
1.0
1.0
1.0
0.9545297390104835
0.7970329350128514
0.6259464401440571
0.5133357662056308
0.3907041094294687
0.390845801806163
0.3385580352992643
0.33967591167139116
0.30209576208705735
0.3295182069109571
0.2788708611381895
0.27908134145405294
0.2473756233872368
0.2694597984090109
0.21557854015980188
0.22983943745760677
0.16925491262323855
0.18308756187255498
0.15314115790468175
0.1251813272101626
0.10981201369532027
0.07029832722298775
0.06616962557247712
0.026717047713537046
0.05539703516135006
0.04313361016425095
0.08233796124588055
0.14072025056411291
0.21578493401638302
0.28000540317586986
0.3587062271909315
0.3905318212437077
0.4889773290788592
0.4659997400855224
0.5404047570987323
0.5159337443011043
0.5335306319874186
0.5160141382614005
0.52515647407877
0.5070703283903866
0.5423554393349345
0.514513668114326
0.5477917532876708
0.5067556201890676
0.5240023831009148
0.5160900769040886
0.4945191726850597
0.5017569675582811
0.47738295191492297
0.5000422867527773
0.4992747260220316
0.4980061395942611
0.4852164896851866
0.49840378756463943
0.48155154935094935
0.5372544289773726
0.46772573062723827
0.5120190496155218
0.4893626673137835
0.5226901884992647
0.49606735847600014
0.5029342013421765
0.4974774482103227
0.538208514479461
0.534432816522864
0.5912276431464567
0.6203857351906632
0.7224907413320991
0.8175023285637915
1.0
1.0
1.0
1.0
1.0
1.0
1.0
0.15845951616624507
0.0
0.0
0.0
0.0
0.0
0.0
0.0
0.0
0.0
0.0
0.0
0.10722875262594153
0.35127245639792404
0.47818397536226415
0.5583759993423464
0.6163132354717018
0.6549582709527588
0.714455658651117
0.777417095362514
0.7925789311669991
0.8531106560778113
0.9420854898805245
1.0
1.0
1.0
1.0
1.0
1.0
1.0
1.0
1.0
1.0
1.0
1.0
1.0
1.0
1.0
1.0
1.0
0.9594813756008641
0.8440423794760701
0.7568307361312314
0.6752270149197006
0.6437660767528158
0.6052863687412311
0.5772492974685607
0.5604941344159053
0.5584275741056766
0.5385899469390635
0.5526826048080161
0.5011477723354331
0.5343507595121058
0.4900680047789122
0.5204970375806363
0.4866151125066205
0.5252867122403935
0.48957544639722117
0.48501267214303984
0.4949452718402306
0.4919109448356506
0.4762576365212589
0.5056747597888993
0.4659095346327648
0.5152312249444125
0.4919753808145494
0.49543502711070275
0.4768898970815402
0.47355225263408257
0.48995187975613047
0.4778221795852796
0.4910904614176683
0.47186129721346903
0.4910296606990395
0.49044728397531434
0.4888936721281656
0.4567566038475813
0.485771319947371
0.47502674886135976
0.488542266430571
0.4450386773271111
0.49996824095440545
0.45373058120654636
0.48776317352575776
0.4577111290016327
0.49685123068045023
0.49153110602640815
0.49780709165030157
0.48842548118992407
0.4944393811350622
0.4957038600311858
0.49477300351456754
0.5092341108593531
0.5551525923787631
0.5692183269064969
0.5667877916800172
0.5897855568938075
0.591802417240198
0.6001680977647454
0.5727035705100538
0.5864332546247122
0.5030281222134414
0.532389959543338
0.4657790166153514
0.5084816328675351
0.48014960013821817
0.5027299941758994
0.47891940222467494
0.5210207518888326
0.49087580805661657
0.5585209755933488
0.5117747252674294
0.6815349391349121
1.0
1.0
1.0
1.0
1.0
1.0
1.0
1.0
1.0
0.9024612223534362
0.8086131648788799
0.711693254521008
0.5951969794430684
0.4478806997680323
0.3785133986369125
0.29173584054992224
0.33915028481234477
0.23449763469477009
0.26728064251645284
0.22984067615538603
0.25149099678688946
0.2080362080168726
0.23541416508403942
0.20671017638586076
0.18732463359716395
0.15880833743248624
0.15164339746543898
0.10969814452522386
0.11851948966535888
0.06007793522523226
0.05451774006430714
0.010558620920807638
0.0
0.0
0.0
0.02263566878790959
0.04012843671367987
0.15313812853859937
0.18610362141208792
0.2947421782006446
0.3375137662286817
0.4430916465558009
0.4748195770455247
0.5263865349106077
0.5182574880421021
0.5345140600681123
0.5152935193320068
0.5340435134563892
0.4981284792904366
0.5232347219985083
0.48330009908215
0.5148457730195088
0.4955014085668747
0.5160471405592099
0.5011270811865088
0.5085944715333857
0.5187763913820399
0.505196907190331
0.5368084567097116
0.5041665319749258
0.5251408211472481
0.5279985332897336
0.5454622791107244
0.5388068232668359
0.550716698968655
0.5130308568414723
0.5379485942545091
0.5099611162269582
0.5434704238488965
0.5043863975554872
0.5251908207567137
0.48666553141154073
0.5248106083015037
0.5034370492307397
0.5505830923082675
0.5650944854609571
0.6113127171898209
0.6065103668609215
0.6154128571738056
0.6181589781816939
0.6211565142781732
0.6014600135746038
0.5876468409391447
0.5743017173077816
0.521955481573664
0.5133279037386995
0.473731519670917
0.5226919770768563
0.4775293710789924
0.5055457597276535
0.47614626611965233
0.5120605989928773
0.506802956821242
0.5541916389599923
0.5101843711209899
0.6661542487555554
0.9739226797716093
1.0
1.0
1.0
1.0
1.0
1.0
1.0
1.0
1.0
1.0
0.8617272283211171
0.777636682758885
0.6089522344459676
0.5155486935661439
0.3872191966880958
0.3318602441728992
0.2864703761069253
0.28407978452032473
0.24106318125173004
0.26227088289180334
0.19891027679401904
0.2288622778121447
0.17934521191652286
0.21539399724274805
0.17406592921452274
0.18689105185421884
0.1484399619855284
0.1553191333832545
0.09383549459752025
0.11404260987047614
0.0835933888257431
0.05831765887286826
0.04145964076091442
0.015705923341678574
0.0
0.0
0.0
0.0
0.03464816436401117
0.04366639411024131
0.1322933814866925
0.1641805667429
0.2578894322751245
0.30982964239073024
0.36679540440006786
0.3967963323504314
0.46721911335286953
0.4454988766708426
0.5142018974667495
0.4799881591909093
0.51082533534538
0.4994939519655417
0.4976124401971133
0.4869128758783556
0.512505907905896
0.4807953170116307
0.503843751920603
0.5000995352362649
0.4939647012028307
0.4915422640222121
0.4871944708784758
0.49388054249004687
0.4692667174155803
0.4754553491951479
0.4607659971361334
0.5109713068142401
0.45364068943652447
0.5105247165689809
0.48101896349926704
0.514729268229323
0.48260793440593847
0.5000847211122447
0.4760532254483838
0.5110194419113461
0.47471609483037336
0.5143741673217735
0.4971162115094613
0.5012333717736972
0.4998062350539613
0.5228671666847969
0.5015079027387943
0.5214991617256576
0.5296269205298415
0.5596039057780489
0.5989707162187928
0.571701721444736
0.5771535820825066
0.5861065852663669
0.6278636078861579
0.6091693880441542
0.6208810377607902
0.5880424239376484
0.6299229278895713
0.5886867984121382
0.5795395623402007
0.524727217348562
0.5352487283447018
0.5086539872984547
0.5681933288866463
0.5206506729982292
0.5370226395287296
0.5155307834009535
0.5395526012796817
0.5249496781927054
0.5634394326030774
0.5452139959825836
0.5421376585923647
0.6114982962435519
0.8750912642192376
1.0
1.0
1.0
1.0
1.0
1.0
1.0
1.0
1.0
1.0
1.0
0.8715778551257563
0.8121405431541362
0.7297466151810819
0.6346744710075686
0.5028404853023002
0.42377902375926685
0.32009215049864953
0.31807531292899055
0.2860413582997009
0.2738473279160303
0.2717659622464828
0.25437102959811825
0.24382150162815938
0.23001489474230669
0.2090913186029179
0.19783055687088477
0.2184748318433289
0.1737932718024771
0.18036005332311963
0.13162771457748187
0.13960156533496834
0.10812132702340649
0.09438926816952273
0.04507409181424267
0.056455758014244496
0.0
0.017067613371745782
0.0
0.0
0.008788412191616768
0.061455360912613166
0.08289075733236909
0.19724538131247243
0.24619514499935735
0.3324199783102483
0.3884671603864313
0.4371382149337612
0.477920964807984
0.49619286346911845
0.5217834361537343
0.5371542196218
0.5380460100264953
0.5470240086630573
0.5962370398033862
0.6534362935702311
0.8864165713157336
1.0
1.0
1.0
1.0
1.0
1.0
0.250894979618242
0.0
0.0
0.0
0.0
0.0
0.0
0.0
0.0
0.0
0.0
0.0
0.0
0.0
0.12420052868119318
0.2634527646384036
0.4008214452592343
0.5081675100225016
0.6121032498195251
0.6419666558069783
0.7454306609699343
0.7562459018765721
0.841432265690969
0.8840422435703351
0.9580955634983909
0.9891720098144361
1.0
1.0
1.0
1.0
1.0
1.0
1.0
1.0
1.0
1.0
1.0
1.0
1.0
1.0
1.0
1.0
1.0
1.0
1.0
1.0
1.0
1.0
1.0
1.0
0.9079306881555146
0.8454374363094429
0.7581677114504763
0.7082204965455673
0.6525180691598804
0.6562048019638398
0.5935194140875729
0.5927419056898336
0.5759120163646371
0.5491214887038317
0.5401358057266823
0.5310736904474445
0.5300683731171922
0.5173848724633439
0.5176251746544616
0.4975026812820246
0.5087851250736445
0.48966807256730593
0.5029166433492285
0.4631170102146986
0.4911337100652666
0.46324226500502236
0.46690046283707265
0.4548529756442929
0.4732254225008393
0.4359033717672297
0.4766006978521339
0.4458961058254827
0.45261897838226
0.4335080351653378
0.43813002066721396
0.42163390004565526
0.442273220400654
0.4297124689274582
0.42723391311128295
0.4246878552406425
0.41520575536362864
0.4188992261129633
0.41658933601528475
0.41987813415337644
0.4147247561221336
0.4374682960155991
0.4066174774300463
0.42575213489772795
0.4072001662756352
0.4338648577517866
0.4165792980950421
0.4178212225312155
0.40087999653246403
0.44325222586650526
0.41181073858978257
0.4370900872716267
0.424142274519117
0.4401843211101202
0.4224800802239558
0.4348972793494397
0.4242082591676432
0.44628149916258
0.42954132560739183
0.44072810179595345
0.4359212044092523
0.433967442110969
0.44869807437410936
0.43536040444909635
0.4522797802385522
0.4414914107898678
0.456447208899593
0.4453678123447321
0.4558310656402491
0.4459930772485953
0.4783730273189285
0.45153849453313893
0.4745453692210025
0.4324437801656753
0.4763172993173138
0.4565053731539231
0.48187345744454674
0.4613839081218719
0.48116064987800816
0.47818814130091836
0.5203370551733625
0.5202639989317898
0.5470741867797506
0.5440527909539162
0.5644413059620247
0.5576246726797106
0.5322070145439429
0.5627179760274621
0.5380824854572362
0.5357672870182446
0.5051188247218368
0.48373224574066054
0.4767675093979866
0.5112724645912803
0.46850018735455856
0.5046287809087071
0.47585020419516083
0.5016015570828865
0.4865966318921176
0.5079840184837796
0.4890924107065427
0.6168356951226919
0.8660643386778529
1.0
1.0
1.0
1.0
1.0
1.0
1.0
1.0
1.0
0.9499197298934974
0.8334201232223115
0.7778990845253999
0.6519636853955036
0.5729078299238034
0.468079659077753
0.40900334051024645
0.3302211982615586
0.34116456790004623
0.29045560861530395
0.30638503919539634
0.26151657147473034
0.27459418412319386
0.2615478414534585
0.2571336338804925
0.22469471590333612
0.24204684695137907
0.20988663708520697
0.2179318990831145
0.1792163283532781
0.1819646286412206
0.1515261023625631
0.1339921259271281
0.12234457382607226
0.0932656196277466
0.07308167433171323
0.061361511361130106
0.03830592199298284
0.048004251323332435
0.08615013478286562
0.10244792005260765
0.1759520294997982
0.21990351650999324
0.32013036841999565
0.35550178621686446
0.436039244583393
0.45832220204034896
0.5183774306532118
0.5204476695835218
0.5329025942811951
0.5387568135829445
0.54677311462347
0.5129959545486831
0.5313472549347728
0.5122737850848021
0.5139638738119952
0.49576419683550765
0.5010781426230295
0.5009371321423491
0.4865717600256569
0.5128019419876485
0.48832633644893164
0.5112141327233112
0.5115702947083562
0.5006264929306196
0.49696725951046244
0.5065773826998647
0.49643010332906934
0.5152721660164012
0.4862892155179492
0.5132577960950039
0.4780449810255325
0.51104106864839
0.5053841251998319
0.5240513255577428
0.5291274455003038
0.5490020928457162
0.542126361028705
0.5612205075134739
0.5666961227127969
0.5915217081523019
0.5474758805563533
0.5679722185078115
0.5476876504594588
0.5250668312805444
0.5313854816355664
0.4652595182012119
0.49142868934485484
0.4782626300625864
0.48085918391776106
0.4466980347698296
0.47879329182324637
0.4688903230103894
0.4818107273904939
0.47575900748143624
0.4908135968505606
0.5296703926468378
0.8415625847736441
1.0
1.0
1.0
1.0
1.0
1.0
0.9705268124385877
0.9251413694823704
0.8844063995330596
0.7878582088603794
0.6888636588144738
0.612894827384333
0.5337657099744086
0.44939486248368554
0.3810068251379165
0.31200638130187286
0.3129403054204003
0.27677710524853766
0.29051398697264263
0.24926637788698774
0.27475814173276253
0.24056194837134778
0.2692407198701141
0.23165836869528408
0.23430739962421687
0.20732512286852564
0.20779166223037607
0.17630327198936677
0.16849945266669342
0.12795177579040598
0.1270089817137255
0.08469932242530209
0.08790585333143977
0.06304253379600118
0.06055197129358518
0.07700814073371091
0.0731909037293792
0.12375159685736814
0.15601114278209124
0.1999139341496386
0.25888853527290473
0.3597755334795877
0.3770887902450175
0.4175267078513604
0.4330151086125097
0.4584795465086235
0.4272503527344932
0.4704076092668398
0.4397729191503005
0.4739772168967762
0.432941841559315
0.4511903940637354
0.4216962372937562
0.4581730675298582
0.42682918200574693
0.45420814364497053
0.4521273711140501
0.4488152313332412
0.4629190568444109
0.4517848124666327
0.4561838505687855
0.43475161083824965
0.4683844246611102
0.44510876462480703
0.4667303158511082
0.44883023758307805
0.4648531889891888
0.4625396889615869
0.4743260909557415
0.5009891199467307
0.5252272177211879
0.515714580070247
0.5383131492053193
0.5236304250948772
0.5614014577264814
0.5289678970426669
0.5526107863120939
0.49593298980886374
0.49869171320943406
0.4601519683521296
0.4637239290920041
0.4632055676572541
0.4580419153638088
0.4589524512173283
0.45492930305949875
0.44980663693533274
0.4634270994470821
0.47206969539358024
0.5261492271771001
0.8016161959291386
1.0
1.0
1.0
1.0
1.0
1.0
0.8953406457775491
0.8646314084113825
0.8211124282745613
0.7619910690997356
0.6513806421019053
0.6072539981821493
0.47768832965556796
0.44120078937064705
0.3479320014959669
0.31916779817273006
0.2874378092172162
0.2836775007584524
0.2692622921523686
0.24938801132697144
0.25067526549288205
0.2512860057750229
0.23420507878237445
0.2346515676650279
0.21999990680205395
0.19905128323896154
0.20304560007391767
0.17081222299501567
0.16520199184448928
0.10992342030580708
0.12344069527882126
0.08029374488581231
0.08473661121082801
0.047941950156304536
0.07340852546580016
0.08325393019514644
0.11819154485868504
0.14146177775993457
0.20785048598486716
0.2555303127573205
0.3403562698277335
0.3737931844887304
0.43598532333023654
0.4391733287719335
0.44890841043682633
0.4674890454672891
0.4506048218674228
0.47128850396047967
0.4448782207592575
0.4777842495850663
0.4456771887047319
0.45408663756929124
0.4327166780428522
0.4450224544573381
0.4321007580119434
0.44984598149151633
0.442327951250787
0.452693198356391
0.41896599197654555
0.4646537216641942
0.4299804064653528
0.47193750175443283
0.4320327146922124
0.4496579059333681
0.4359407097558033
0.44814670157422914
0.4441856155048417
0.4419808046950706
0.4476888483226924
0.46164091768844023
0.4938554808846581
0.5201626602093945
0.5249140058513831
0.5259329173145798
0.5381919521759677
0.5186050900468266
0.5329264381141606
0.48979592198815497
0.5017656486217801
0.44454989573991927
0.46146822484636674
0.4242351334613724
0.4568558979969925
0.41844418898371866
0.43931402398997177
0.43527062314433324
0.44112282403064385
0.44696576517802267
0.45935547051489645
0.4624354211831755
0.7144073453314185
0.9791028129805801
1.0
1.0
1.0
1.0
1.0
1.0
0.9692504266470472
0.9118663451907068
0.7958018753291227
0.6953389680249197
0.5814422129150656
0.48092436713066744
0.38773572198991857
0.3578629310749045
0.27955319558078184
0.28968640856157696
0.2477887718079174
0.2663905050890864
0.22931233175464455
0.24477520294545085
0.22768700335671804
0.22936483430442514
0.20746895707487362
0.20741119573813066
0.17820216154607996
0.16746278068355586
0.1556346602712848
0.13559369053889858
0.12120437850491719
0.07625825237694003
0.07122185391395952
0.0311461197562223
0.04782630313684475
0.03231261488553718
0.04343521898279965
0.05364571796855291
0.10031397503409108
0.13586678469538663
0.19254951924781166
0.20940400836059184
0.29139279680021735
0.32102976017047313
0.38399324585466815
0.3904778789000791
0.42727537940305804
0.3964875227872094
0.4330957915084446
0.42682729677356257
0.4351164112751382
0.4337428207639694
0.42637193203175966
0.42326612850593204
0.42166402088362104
0.4243100269279278
0.4222951205825085
0.4122352188604461
0.414254107266704
0.42352325487223935
0.3940951829269472
0.4235057024880714
0.384707571537966
0.4198102041123845
0.40269430735337364
0.41122583963059844
0.40540980792562464
0.413577134231796
0.40213235934952885
0.42453393215723806
0.4043282867184869
0.428926622480766
0.41100659057743416
0.43250078160868677
0.45076715884605917
0.4586221812226884
0.4588708350162549
0.47999252296673295
0.48866729150723975
0.5070861154384884
0.4933648825687752
0.5052827028943497
0.48761159016344513
0.4753559292625983
0.46497006108155203
0.4159244287794909
0.4413731980776808
0.4464751296658712
0.43975500151042135
0.4211652645691789
0.4475537832148174
0.4274957047763895
0.4432091120515717
0.44664900440151045
0.4704165734437577
0.6721727566062418
0.9603468481606724
1.0
1.0
1.0
1.0
1.0
0.9249242248961952
0.8299391604806955
0.7498598379306465
0.6792115299828183
0.6093902643222148
0.5463799897937016
0.4403161014401703
0.378986099307362
0.3148440116516791
0.2998715674842808
0.2884157103763383
0.30784817685511656
0.27028888475350765
0.2939957940976242
0.25620885136453636
0.2711148790732619
0.257646373591781
0.258583565633109
0.2305559463413506
0.2341558698457847
0.19475403748743375
0.20507666930429433
0.16213949612879985
0.17362244900488083
0.15109151047283134
0.13697236286196515
0.12942909081871523
0.11796241913169028
0.1265425672320017
0.12733829598443952
0.1611769102599101
0.1883375598099606
0.2354722729599492
0.28940466051806696
0.3452278797673229
0.36897091433578943
0.42485582215991646
0.4137768871454203
0.45392679578162154
0.4348440200072791
0.4616276641712198
0.4424886593913079
0.4528451431515217
0.4466595462259786
0.46358127411235434
0.4367573635677604
0.4555267317098338
0.4362060876292876
0.44667608420771765
0.44262822103819194
0.4379609099936969
0.43712619237850375
0.4307196285149549
0.42975694956068144
0.4334764880082488
0.43109583568470367
0.4416907872048954
0.44781724121020183
0.4319776308512777
0.45795038128718935
0.44314479159716236
0.46365039008086456
0.4562948968426033
0.4613909536092574
0.4475299714641584
0.46831758418533154
0.4571941366900301
0.5032973677490138
0.4821197286402259
0.504722719611524
0.490013722388922
0.5038809806386595
0.5013889841046273
0.5026662108403966
0.4884150282206603
0.49311004798375124
0.47249374685238293
0.4527770303729941
0.43703210259372166
0.4250508858035391
0.44557698591468575
0.41297179042816773
0.4329266372917452
0.4273644011715928
0.43693393818435455
0.4308938245580687
0.4518149806697654
0.45121610278956154
0.6393296067527523
0.7832749199192428
1.0
1.0
1.0
1.0
1.0
1.0
0.864005541612406
0.7779914138713828
0.7366869979325975
0.6260338847665105
0.5674907591477514
0.47422881622993324
0.41656335227384267
0.3675754956212019
0.3169977077601838
0.29940926097929993
0.28237810974147665
0.2906297333480826
0.2670689216439311
0.28030947253539706
0.2595374953691952
0.2551560748764678
0.23208949496282688
0.24552673058456395
0.21481733635652583
0.23708599359020374
0.19294366013842765
0.19525341273164418
0.1670457626927137
0.17243224126907725
0.14271816655217145
0.14252103725784257
0.13398883742892806
0.14331267561662778
0.13259379285500267
0.16960974969071407
0.19197695399710574
0.22885813722965556
0.2722690568437759
0.32219896739275644
0.3759192411504268
0.3940869786022251
0.43553397308885744
0.4259557688424005
0.4430013514000632
0.4340443505985334
0.4520008232441137
0.4383276058668065
0.4464028709165177
0.4350092878460973
0.450995837861893
0.41390907223730206
0.44316031532270495
0.41627597458223525
0.4271296350724456
0.41060793076228147
0.42009532912796327
0.4192626181227072
0.43040616266599396
0.4073075413000857
0.4259752052001143
0.41963809652375283
0.43165248584445354
0.4432984990944425
0.419955417627198
0.4385266616814746
0.43149631988396314
0.4414862843565994
0.42533306269063254
0.44274122173705416
0.44120572697104
0.4565635345712523
0.4512007807089725
0.4917890966558896
0.48410403760062126
0.49276912687608476
0.4815298624958223
0.5033666637299876
0.4804655180279968
0.48985074216518215
0.47488444998244034
0.4712283380099155
0.43433939219750484
0.4434806674015469
0.42739287696290323
0.4122311696830908
0.43506381180231013
0.4146253608292761
0.4145171571681561
0.41259040787740914
0.4194625135281739
0.4203889576039745
0.44695394199028443
0.4256171154205471
0.5353568046229582
0.7414818745207015
0.9644389935975706
1.0
1.0
1.0
1.0
1.0
1.0
0.8655836191183839
0.8137189663111645
0.7532775495845503
0.6859833166547916
0.5916906230939177
0.551669184690913
0.45022575990734603
0.3925220134624007
0.3413010905417151
0.3115724191248429
0.29348230534375136
0.27489007358657674
0.28481468313431674
0.2686434225338334
0.2693389979801966
0.2525735984019859
0.2662631643912043
0.2327735314044649
0.25600889172163227
0.21593459836632728
0.2198814832172417
0.20850172800086328
0.19076525660654803
0.16153034520344525
0.17573335829401399
0.14088947734521778
0.1456420997441167
0.12345627611719072
0.10429856976830516
0.11330516657464758
0.11361625470077508
0.10969618437904302
0.13623210562335558
0.16264128029576366
0.19134095688795583
0.24587814292784657
0.2859267394880881
0.32296464989765566
0.35633233796655067
0.3831263507437243
0.39162800467287895
0.43472060237624566
0.41694271432616914
0.4472991406762155
0.4349476125119033
0.45108352788883543
0.4396622460271888
0.4545225121834259
0.4281935994945226
0.4467814332108504
0.4373985836798222
0.4393253419940894
0.4335899719829216
0.45023339028698245
0.428063407035046
0.43920755330179906
0.4328579800174929
0.4212778256022681
0.4271414773279907
0.41733301327831435
0.4178925961940777
0.4292621898608955
0.4299526794324026
0.42288002016152976
0.45014557202967065
0.4147581726936801
0.44317875947848284
0.4397077868778906
0.45671848133874676
0.4262898338651098
0.45928682247305996
0.4365952905104081
0.45097853671209764
0.4477411824466424
0.48868516795697275
0.4889659897825293
0.5026832442675631
0.4740795485043158
0.4944867536156603
0.50251240234896
0.5069444745971052
0.4950760320052905
0.5059802221476211
0.50393633899408
0.49209052156506833
0.4807528660108911
0.461463243980892
0.4602539583244706
0.43777080013719544
0.4512737460104546
0.4616006228090567
0.4554795553879291
0.4434508274173613
0.4616456657904541
0.4502964843836721
0.462159983579954
0.4610632779172967
0.48057262667907946
0.453581222281923
0.4510480010344772
0.5466534177161014
0.7507545606791807
0.9093501104265215
1.0
1.0
1.0
1.0
1.0
1.0
1.0
0.9369950781542842
0.8003132651773956
0.7449047543938415
0.6935224640113692
0.6400776070684124
0.5768436354778202
0.574135143805084
0.5326605832672966
0.48901661808074587
0.41372250064736626
0.39452518837553097
0.33419342464793206
0.3365813737498839
0.32614664496033763
0.3474168738910278
0.31831922255738976
0.31872908200187877
0.30067333913897143
0.32016803217985135
0.2991272899585936
0.3061368925790657
0.29797277543435496
0.2942050307264293
0.2890969065770859
0.2823795621150203
0.2873174211103756
0.2641871046642067
0.2721147621525234
0.24862329681149392
0.2427520800137705
0.22262863675554972
0.2305059277917521
0.21848606028917086
0.20915461562183343
0.18151199758598757
0.19593371903393453
0.16971632214029392
0.1865200147181914
0.17174133480041612
0.1909658734096049
0.18639450408784458
0.21734397010471543
0.23161277961560361
0.2752391790497703
0.29958568154123977
0.334935532286746
0.3630007774224071
0.4137438184037367
0.4308006381381812
0.4349208001830636
0.44759556271718265
0.4612793966049276
0.47040375990149447
0.46734078561541104
0.47507666531095627
0.4555683008907919
0.4796902647140985
0.4546791566904068
0.47184980668271664
0.4542003152114019
0.4627657930326281
0.45483321333680654
0.4810046401425335
0.4454527027762952
0.4653174499836287
0.4486562576916354
0.46995739928498487
0.4566179023641775
0.4629923977973364
0.46198874218217334
0.4686343556971754
0.45778412513915334
0.4684874440214698
0.46062552758952213
0.4608689738524016
0.4837289595160417
0.45950088334327976
0.4645342798828305
0.45392458003336084
0.473654347083215
0.47163363909087475
0.5058888334028185
0.4987317979359519
0.5269917641082339
0.5016335868776304
0.5393643644455699
0.5179808888984521
0.5244352337753069
0.5151404063500963
0.5110569579807601
0.48791759417439007
0.5021411497327772
0.44705103321228473
0.4623840677483747
0.45598441648430804
0.457672696308538
0.45272104608066793
0.4531937897868576
0.4517899113939272
0.46073445869065466
0.46144594607244394
0.4609358545530206
0.4550856074502018
0.4909430216879673
0.7020932689425161
0.8765407080904588
1.0
1.0
1.0
1.0
1.0
1.0
0.8314401071100708
0.7595500849246284
0.707031771957471
0.6205961610730834
0.5819656665459896
0.5205474226443949
0.4708684642470267
0.4018729703114207
0.37944984446082614
0.3459113803949706
0.33798233332603883
0.3458202880481012
0.3348732914117224
0.3350495973951401
0.3258687079410737
0.3197608645928767
0.31548521477624225
0.29434462674944795
0.2749220880334895
0.2988270961172079
0.2669133426566618
0.2811086624884097
0.25900553999735154
0.24166749700433626
0.2350020334430681
0.24328393609097612
0.19104086782981572
0.20504222996175464
0.17815518030848093
0.19995005609055566
0.19178006142386309
0.23249198198045903
0.2561976670405074
0.29171374533971545
0.3282601345912921
0.37272994752852134
0.41290616835525756
0.4308982681262533
0.44444402638341274
0.4558356148043462
0.4522122980692099
0.45148087753213806
0.4642569687017314
0.4454826205331151
0.46388910136596373
0.44205744592992147
0.461174909739999
0.4282549762136825
0.4514522165676137
0.43359942569187265
0.4406456300074524
0.4165376679563956
0.43471224660810037
0.43402204963801927
0.4371681280743848
0.4328165152998979
0.437497944092914
0.43740639248853
0.45199280375944273
0.4374188790722816
0.44722284471255797
0.4441351087228752
0.45046972904346577
0.4581308177009286
0.4420674303859659
0.4586956092030219
0.4572585643022548
0.4947716528719763
0.4768220358550502
0.4997761905394055
0.4886631768627451
0.5022470977469109
0.48674598437968203
0.5056772013986546
0.4795067194345002
0.47859693935518244
0.4337141976756615
0.44041549652625367
0.44166247893017596
0.43513790522918827
0.4361712534772715
0.45553553483772957
0.4340775529737483
0.46062274583548035
0.4428963370312484
0.5164152979395684
0.6997759578528016
0.8403198851101298
1.0
1.0
1.0
1.0
1.0
0.827039339148398
0.7576388600211974
0.6755465222400447
0.6008505936621168
0.5340860077724529
0.47384512760567965
0.40880958473579987
0.3656593682919517
0.3268544704782442
0.3322608942013662
0.30641679866111743
0.3170738189445398
0.2931810125089655
0.30164348794713014
0.28565792374442545
0.284127554835399
0.27830379738145977
0.2646504027857547
0.25816749485659063
0.24912568080754816
0.2416820288170805
0.22827667271337213
0.20673313454849782
0.19215407911178758
0.19216546671534776
0.16564985920957026
0.1860333323911107
0.16917538248764816
0.2120827591084966
0.2102020556790863
0.2688838415270546
0.2864515123852346
0.3497249172221631
0.38308559649198315
0.4163076636143021
0.42614200262696694
0.4379575687755789
0.4373679536106131
0.4590516020940821
0.44040654176402905
0.45290679669373024
0.4355549512962848
0.4534868853903477
0.44321264038748504
0.43295265830702984
0.43666773907522105
0.4281446576880496
0.4374922930203379
0.4254243830128132
0.4389986195958633
0.41833080170567066
0.4418272625614129
0.4252296900397951
0.446990523995973
0.4405536764840453
0.44865500672126757
0.4326217083021614
0.4397698454935017
0.4417925342316053
0.44487435470760284
0.43163341852107084
0.45264352989915
0.45898946144843344
0.48456009371796577
0.4848520795837826
0.49919188400561587
0.5003857961588708
0.5130640111447968
0.5023003901776396
0.493599233892427
0.4984440728985445
0.46494662160550737
0.4821678706660034
0.44060046282761006
0.45379614851447847
0.44427219524148176
0.4417396254788918
0.44111474449952953
0.44611859788299874
0.4305472879291984
0.4610106689699466
0.44086493195599924
0.5350711447418115
0.7261216904912443
0.911312117218835
1.0
1.0
1.0
1.0
1.0
0.8032877316422997
0.7613967490102533
0.73374563758567
0.6615347051155711
0.6028603140848652
0.5475090490670287
0.47297708920586035
0.43965909561356026
0.369851199276744
0.36249793339027236
0.34324960617058153
0.35086481382864576
0.3288218217210721
0.33837162174500196
0.3208567081609571
0.3338792035068754
0.30417036622069743
0.31930773008841984
0.28431684620195435
0.3009357059000327
0.2729312576530773
0.27107985110546423
0.25517312402525266
0.2414273074151577
0.22316477332186652
0.2157684624271846
0.20401127744698475
0.1998053975689798
0.20106438753914144
0.2111610639234395
0.2372248663891289
0.2546171307331359
0.3040487556697581
0.3339587807446764
0.3969531610149815
0.4146263105941002
0.46598653213440927
0.46318055873848313
0.47742272711301237
0.4706775888811513
0.4846681598362529
0.4756466244840821
0.4784134641563328
0.4640640932188684
0.47926384577058745
0.45808071054061517
0.47260565177590685
0.4507960269316902
0.4664312232392727
0.45796703882450274
0.4574368187245718
0.4657601824405145
0.45790655289689663
0.47052415383646784
0.45752862336358485
0.47245536598780025
0.4712838503446868
0.47283413660319623
0.46519801260636323
0.4745632834227627
0.4743892275551077
0.48007717670967126
0.4723788641906662
0.4903299641594264
0.4983020338058254
0.5375189835508497
0.5125970372750378
0.5379733999356886
0.5257990827058789
0.5417308751812085
0.5087954781046269
0.5337793025233741
0.49828406722848884
0.4987803286588619
0.4687860475164394
0.470970715613381
0.478987312177736
0.45722234715418636
0.46975689597254416
0.47068437037422867
0.4745789917616964
0.4682085526429146
0.46649089014279016
0.4913504173123974
0.6808059815718802
0.8795359429531455
1.0
1.0
1.0
1.0
1.0
0.8605088348691465
0.8465105791171315
0.747758476518394
0.6954066141365293
0.6261218428563653
0.55610504199599
0.47318583727522984
0.42595054233313173
0.3709587692482704
0.36150099122870283
0.35134108824973165
0.3352388884809061
0.33331010590289123
0.312531071622837
0.3103139897498772
0.2992252804443308
0.29551768534179457
0.28957737187423066
0.29050252662585074
0.27065885792380656
0.26957733382355853
0.24033108392090194
0.24608441106182913
0.20839527374462885
0.21042004807866155
0.1897728648724024
0.18487410118445383
0.16515415941934553
0.17738394481458472
0.15320793816812261
0.19712273513040973
0.20554725433286475
0.2370661440282608
0.28139038148002427
0.3200946879578799
0.37394244578238917
0.3980731405299303
0.4124155211292309
0.44152028511677727
0.4558548644978811
0.4609915331835112
0.469662564866084
0.46230622137928945
0.483412858654099
0.4653246293046731
0.4691694701570623
0.4564185215481344
0.4573772433527914
0.4534552017288213
0.47582597376517566
0.4464179081347385
0.4590099219214971
0.4265486687773422
0.44584826617313295
0.42769326352807624
0.44320671050695426
0.4400622448228157
0.44111607970504635
0.44410565732834223
0.4424543550619962
0.4445105103724796
0.4574340951008787
0.44606993035739234
0.4401359110888928
0.4506516198111922
0.44106913290047595
0.46233170463164425
0.4522833271612418
0.4882220363068074
0.4779768451998274
0.5005066562933447
0.4907529425537717
0.5082032987716961
0.5110293015731011
0.5179374948514325
0.517800671661377
0.5146056556644507
0.46837910114278164
0.49781991625335287
0.4460941674138028
0.4704134801861694
0.4584680290444334
0.45654406763501604
0.45643766702753946
0.4632072193253018
0.46213745066569106
0.4559519375095505
0.45994974626448115
0.48260916605204923
0.48804163185699945
0.6636940687913769
0.8952623692945464
1.0
1.0
1.0
1.0
1.0
1.0
0.8792308972676242
0.8323161590686773
0.7304969029648383
0.689101052852978
0.6014494624229425
0.5721647667065982
0.5005858804746464
0.4349056836275239
0.36822296878399124
0.34417239337159683
0.31829417054339704
0.31105689074948284
0.322533485706196
0.3079577895065042
0.30266117289498223
0.30473028085981896
0.2838865374996301
0.28640647074904896
0.28810469993347665
0.2645411175564923
0.2694754895632953
0.24842459636669564
0.2589862500150114
0.21426954432398793
0.22906533556039918
0.20274463635767437
0.204379889593522
0.17684015374273251
0.1857066242967992
0.1678401054808576
0.20331278424198898
0.1896669413440014
0.2291911202106931
0.2526950297067658
0.2892087470771266
0.3358866777533562
0.3745954120167986
0.3901520524435251
0.4295378244183074
0.4542793927559684
0.4624717576330675
0.47665454500806614
0.4667704906416786
0.47728183833837595
0.47273942059130303
0.4770815009644993
0.45491255188658714
0.4680578972978579
0.45181036778853423
0.47381885787160627
0.4523315093824098
0.462889347462593
0.45427409450416845
0.47073899591408297
0.44508048121117116
0.46127166856371354
0.45569191056875064
0.46736930635000096
0.46146236624970943
0.467113423257309
0.4583352874281509
0.47341853797088207
0.4617424779824201
0.47086683483380265
0.4758910047171252
0.4671937133818839
0.47600724616723944
0.46977058720622616
0.47384799682781553
0.4763785794986094
0.4796455067049464
0.47491982306460423
0.5107072588080909
0.49702907493502524
0.5202509186560966
0.5064380741858006
0.5219939395592677
0.5242751751117787
0.5305907722765182
0.5099291437880165
0.5309555765650282
0.49871814307896256
0.5090349167578248
0.468552611080553
0.47349284171224
0.47731417372719037
0.4686885513764129
0.47069535325246586
0.4730918706218258
0.47134771940894077
0.4696210508775291
0.4685446760431888
0.4845540546364999
0.48670987075556094
0.607029814262551
0.8333945187496262
1.0
1.0
1.0
1.0
1.0
1.0
0.7561081249892572
0.7662314019212495
0.683430418011529
0.6415652256583766
0.5643099426332228
0.5323233860204418
0.44686396507758835
0.39990058655205074
0.3727065935559196
0.3459898299938991
0.33324220023074363
0.3321101217579067
0.3239477057147898
0.32758059650759963
0.3160484861760426
0.3099074719258354
0.3156496975005899
0.2877157124726856
0.3023275416779249
0.2611973895003409
0.26523849284040396
0.24802444745070007
0.2438186877458386
0.2128344903747764
0.22042511935689296
0.18316805400931221
0.200385152046246
0.17275724849912488
0.19455173643090054
0.1894778954230744
0.22124455078080102
0.23212740531249043
0.26052906118074626
0.3021493984859237
0.34434181049888535
0.3790836647165534
0.4064688828943246
0.44001429729269
0.44348623582271085
0.46359248121407387
0.4699229221231275
0.46927752203226775
0.45854583210111083
0.4669949967518092
0.4538558101425524
0.47418753907323785
0.4461135997554118
0.4678153345309043
0.4545499576437142
0.4585390114555737
0.4465584691301975
0.4633631094729706
0.44178454385384064
0.4584173541804846
0.44272654797786404
0.4553705018987598
0.4541715928889373
0.4562307456202386
0.45715779701056797
0.468360437346114
0.45701800606109144
0.46523204858671774
0.47287433398713097
0.4586416579635192
0.46277762670421063
0.4520237626053854
0.4631149908197895
0.4669421680357447
0.47008658009574944
0.44623831489655374
0.471476161708588
0.465893840085467
0.5027033110260584
0.4972152462131104
0.5144434325417688
0.5038669936190912
0.5255949086815312
0.5159542726020508
0.525056401895362
0.4997060972792796
0.5289757991594867
0.5003931499243162
0.4773915426770741
0.4603440483609245
0.44372737549672203
0.46471648995958914
0.47672879366902043
0.4512158493441529
0.45862639607475053
0.4633176792128749
0.45272508166392217
0.46674964881972547
0.45755436199580996
0.46347792595562465
0.5705915578381096
0.7952031657803363
0.9822475017537539
1.0
1.0
1.0
1.0
1.0
0.9059715629956209
0.8509087623747584
0.7474735450796646
0.6745176081600398
0.6246657896421829
0.5634292513852736
0.4706134452896751
0.4009660287055632
0.34100256545166757
0.33631667694991013
0.31773384332346594
0.3120135856791616
0.3135314147891509
0.3004503646188315
0.30248552131435463
0.2796100674155933
0.285805145397216
0.27257766066773065
0.26355442047199434
0.2380744197207068
0.24006842053101113
0.2229680504018383
0.22481276718634433
0.18202975034697513
0.17947666845917926
0.160498578199792
0.16100553325515493
0.1385480456451716
0.15523868421532966
0.1681060791616657
0.18784748312754398
0.22513130905966405
0.26924166016962375
0.3089764881539445
0.3500873873542509
0.3790802416129111
0.4052334456146135
0.4467780739201335
0.4408403907424529
0.467369090494447
0.4543065583246408
0.4664685545873601
0.45447152761301346
0.45928604834203635
0.4545654700549453
0.4671074242681931
0.4352360930249315
0.45867616972638575
0.43645014529554543
0.45635712599856115
0.43152825886657753
0.447441063100379
0.4375146804438435
0.44450816988010533
0.43589453150264906
0.4424016015412066
0.43263637653946274
0.4427163972788968
0.44883812491770136
0.4337298868331091
0.4454283792804074
0.44698036185560736
0.4519718964009301
0.465343245920378
0.45139665653028693
0.4374769669296367
0.4630537621027391
0.4459122905928873
0.47566637343400736
0.44793333999622575
0.49992875530420644
0.48656970857561743
0.507581861052919
0.48531529674259877
0.5124530348321291
0.5055119472612575
0.5172835441733459
0.5008990966434178
0.5151717365322422
0.5047307376557111
0.48624890466274706
0.4735510065989234
0.46120854919593696
0.4580729775387435
0.45927946171098943
0.4513624191342406
0.4534519961808809
0.4701185995377387
0.45693568667935003
0.467159046451434
0.46104573473264565
0.46102942048779444
0.5558382465603299
0.7497516083088257
0.9306969751115173
1.0
1.0
1.0
1.0
1.0
1.0
0.7982360038016614
0.7471083985942951
0.6928502350082912
0.6069897479899526
0.5818319628562756
0.543574120825577
0.4704577161460882
0.42068444654675285
0.3766650205693153
0.35597913938339754
0.35188357918540336
0.34280398345238744
0.32554871456938167
0.3511913257554477
0.33400171219807795
0.34562054760454064
0.3263124224647628
0.3327955332567907
0.3154667314256593
0.3225185582875477
0.2947307883003556
0.31424244041131544
0.2867556240486534
0.2879019568817018
0.271050881996023
0.263571076477725
0.24605737937294103
0.24859767095360424
0.21586342523671492
0.225590745711782
0.21721227223956324
0.24100867415301147
0.26731711017660487
0.2881197508648784
0.32916969079987585
0.37055058135123253
0.4089687836402692
0.43117658263144865
0.4720294356491297
0.4790719633906778
0.5081101390042007
0.48931979578743173
0.5068894385932767
0.5045146021167104
0.5085266832582649
0.4980147995874559
0.5122054034225946
0.4846407816599868
0.5100555143331827
0.4841755186170566
0.4991633777795618
0.4884978734918792
0.4918124415761622
0.490433134304466
0.49542889071471696
0.4903764732038403
0.5095556641856063
0.5014147283521172
0.49264492730648746
0.502784863895199
0.4904116972938148
0.5047693787502706
0.49983347865237154
0.5099855634301897
0.4961289274197944
0.5143426980431294
0.5036690342249497
0.5256548238968165
0.49817236828865524
0.5247027357703999
0.5012617866654994
0.516730279372316
0.5208015344015207
0.5466736226436808
0.5505547748657634
0.5636720530799264
0.5388670388161405
0.574987665185897
0.5620097689344922
0.5526628751456789
0.5594268769026829
0.5563223761180662
0.5418224160417449
0.5402353002257809
0.5184334050937913
0.5033041187355273
0.5156925037795689
0.5003574090721196
0.5101294524343924
0.500938435911821
0.5083594767563373
0.49235593170352204
0.5143033749330439
0.5134701682501553
0.5234374739212669
0.6101923377876777
0.7981563986572476
0.889028749172698
1.0
1.0
1.0
1.0
1.0
1.0
0.9019708179262473
0.8348561592784896
0.7751247417141821
0.6981064351735771
0.6375550380086012
0.5884843357351408
0.51951986426137
0.46664707614729106
0.4207412178644721
0.4111300097059316
0.3876608371766873
0.3921030911784541
0.3765697155049814
0.39168428128164934
0.3620703342283007
0.3648895299718291
0.35177093145979
0.35713908354544815
0.3370716708094611
0.34663069555152254
0.3080606076146529
0.32220026978286026
0.2999118483743575
0.2880685712499489
0.2707207424734327
0.264566178024362
0.26052721125853795
0.255415677461825
0.26839505832809313
0.26647486772007495
0.2963741774069703
0.3236293710415869
0.3794235415753543
0.4179163813704788
0.4723187546548339
0.4897797799192052
0.5236902866141122
0.5136767846542337
0.546363140230963
0.5241856653187345
0.5329157338056268
0.513845500452357
0.5331257209962883
0.5204197594145843
0.5164952094080213
0.506336315210086
0.5080805139365465
0.5029074458690793
0.5145291686614745
0.49675431657431035
0.5058369490513355
0.491916153165758
0.5027076265699584
0.4956511935954128
0.5024154069219295
0.5059952697318837
0.5047051543354344
0.5125329855453776
0.4932694914000044
0.5149657346927318
0.49589198696210923
0.5077766588972515
0.49552991428697696
0.5086657423887188
0.5046566549088339
0.5151892913282146
0.5093378415354842
0.5454745155288411
0.5412668064618289
0.5616450533924519
0.5458784576679292
0.5726955643422921
0.5743294791717151
0.5809504508029338
0.5680477023658663
0.5594091433024057
0.5436929389247315
0.5239690904258302
0.5068977331885555
0.5109881790908103
0.5139058986843172
0.5075263095240129
0.513262604785566
0.5052636130142172
0.5193389708722476
0.500661913522349
0.5402716028994913
0.5319369965113872
0.7192120613887353
0.9227617207138781
1.0
1.0
1.0
1.0
1.0
1.0
0.9078632531554703
0.8296898051167464
0.7830548511154378
0.67626415032219
0.6324861858331458
0.5703666782713752
0.49338290612084845
0.4338510592086643
0.3954923129774632
0.38484164892413436
0.38791729323954555
0.3770471209308762
0.366450768632191
0.3733227453016602
0.3531080507882911
0.3596220444387266
0.33012262748217186
0.345600694513033
0.311875655513054
0.33021986429960787
0.29079246979604606
0.28191901208260517
0.26904973768375234
0.2632787806865495
0.241690413799822
0.2488782813485539
0.23034213206703535
0.24713162743019712
0.24185934055679503
0.2863238982205662
0.32136839889121405
0.37371246046327156
0.42127591982571133
0.46063767426629143
0.5074492739676423
0.5087060336874365
0.542591060912234
0.5066727943004481
0.5467551816789974
0.5237192835599354
0.5346533191838301
0.5246735240698168
0.5319798921148164
0.5105365256699257
0.5302778308723913
0.508256179732097
0.519013181170684
0.511470517786581
0.5229494966741152
0.5181823256091154
0.5348904933988327
0.5209863744930767
0.5464590946521877
0.531805795914406
0.5482722076777501
0.5423427289581059
0.5493849748541035
0.5441075352777875
0.5498891430636388
0.5370702512551239
0.5442823944293889
0.5520877654312442
0.5692802714092537
0.59842956331487
0.5800030329797192
0.60258897509758
0.5958169427525057
0.6099627983075571
0.5921293871999819
0.6180883126233561
0.5783013662234016
0.5826652155462997
0.5483419301601321
0.5552005308999446
0.555831376693154
0.5514231657911237
0.5534138399222234
0.5599101223712604
0.5614315712351063
0.5720321449542523
0.5691548757966596
0.6555005683539129
0.9112395661016691
1.0
1.0
1.0
1.0
1.0
1.0
0.8524297632233377
0.8586429518118919
0.7851443183166281
0.7296793548791956
0.664387672398042
0.6071920633242884
0.5363359177183795
0.49407722121301206
0.449002512926132
0.45221452313027044
0.4227250683634316
0.4412169133748446
0.41255419467525306
0.42595820380300875
0.4089674489626935
0.4115055529757144
0.40036673031529235
0.38553295975411067
0.38144980171379056
0.36568800180400596
0.36627731246994866
0.35132713183329384
0.33890431994024195
0.3153021989884432
0.3100329602955048
0.2937183396190328
0.3049873670504359
0.2922795908885224
0.32442170226819006
0.33035987101554365
0.39187252737366673
0.40688194345681544
0.4813684509503771
0.5044026051496268
0.5531379889387769
0.5523482960478526
0.571457375678248
0.5662378599581046
0.5635384328774465
0.5642324638029631
0.5550726751128428
0.5522380200220044
0.5482222706136508
0.5553163281079583
0.5432698198580769
0.5511333549097012
0.5488074338239425
0.5462945879225463
0.5444606768003489
0.5496966002806022
0.5487049142033503
0.5640519212508828
0.5419463316751857
0.5700882871415909
0.5529489676931381
0.5813697943057538
0.5481124111888349
0.5751433203936338
0.55318019193295
0.5709611148159841
0.5646656160057145
0.570914348880977
0.5663125556984645
0.5826052197629024
0.5937195614680183
0.6182051646318916
0.6279545424247764
0.6221279428849573
0.6271126337189288
0.6387642016899399
0.6260053014991046
0.6316770150660549
0.6270252555155802
0.598848324840157
0.5930120545046759
0.5676809149095166
0.5906729405822079
0.573818156180326
0.5955997481317593
0.5863924699273654
0.5908673083433932
0.5848911075750488
0.5982068670919853
0.6004354390979627
0.6070270714215514
0.7055360729400165
0.9263035771650567
1.0
1.0
1.0
1.0
1.0
1.0
1.0
0.9952975846164435
0.9379911871551627
0.8494369937158124
0.7699352914539306
0.6971134355550026
0.6383652871889389
0.5441311499278321
0.5161657307049996
0.4731097948419668
0.4744460869754147
0.4470340910004609
0.44632075156456086
0.4322487995446872
0.4467353005986962
0.4156528961699852
0.4254394080247124
0.39789321667848954
0.39419880960287557
0.3809757243871891
0.36102189735838586
0.3564087912690647
0.35280972622634865
0.3331981013508207
0.3078447511881615
0.30394823499764456
0.2855519997957178
0.28842839590288644
0.2661024998459546
0.3009062136201667
0.29286608035805106
0.334786041494367
0.36663883944373044
0.4130120071358093
0.4327493532951351
0.5012808487479492
0.5346873517718399
0.5929961963294194
0.5911710996175237
0.6336104941853373
0.6153315608132137
0.6310553389856913
0.6187853925345972
0.6199577185415629
0.6308050388467559
0.6242421342115629
0.6136571782778029
0.6169369739428607
0.6093373697867144
0.616251599193028
0.6013618423528386
0.6007083473697807
0.6007992385114138
0.5947747602922246
0.609592440743444
0.5899485483870273
0.6096461159980414
0.5932622531039426
0.6126420093410665
0.6027138068570626
0.6112732063328087
0.6069973882616855
0.6154257227382163
0.6010080676082714
0.6304914390288283
0.6165091764241807
0.6135777987343572
0.5988617460079929
0.6350453081627746
0.6404887268163225
0.6630482926137022
0.6584304664310588
0.6478700626445073
0.6660632112290291
0.6650122549886076
0.6682680427763333
0.6650000683847703
0.6450050540436009
0.6178634750750536
0.6203258854153407
0.6190259163889766
0.6313925173289595
0.6076845435521726
0.6213117351098973
0.610288078745104
0.635026558034634
0.6130616135659451
0.6253359623191571
0.6220696634305759
0.6671147439124935
0.8154181774748654
0.9727236260408466
1.0
1.0
1.0
1.0
1.0
1.0
0.9572913331021071
0.9036623929473325
0.8646750665923848
0.7862288049205881
0.7507714998665633
0.692880067327532
0.6377759015748767
0.5521624192112531
0.5298445208651144
0.4918834182052739
0.49662042259725503
0.4861707771413215
0.4799229317918071
0.459875826561691
0.48599515174608204
0.46102264643412294
0.4664752659103778
0.4500292342811102
0.45018633998024293
0.4368853824829583
0.4395547753607293
0.41040120545173026
0.4216053727511097
0.39549792897178426
0.37765871063025225
0.3704432604522716
0.33909749734363764
0.34504776791410674
0.32859361512541574
0.3296799520076804
0.3335082148673971
0.3617104761105635
0.37031902044996323
0.4245968838787834
0.4347028078371819
0.5014781249468907
0.5137280218069646
0.5509702950271096
0.558705738106336
0.5876837365964669
0.5934917756160234
0.6253481554177519
0.6011980491246511
0.6167950020945858
0.6056617098431842
0.6016500408976395
0.5998933374053245
0.6052972450774902
0.5946435798367111
0.6066663165333306
0.5947482643092351
0.5898844501472729
0.6033173042478237
0.5930843293576167
0.6007610813982153
0.5896366599250829
0.5976604236252264
0.5844549206576648
0.6065999284050099
0.5878686185176377
0.6129160943378422
0.5834545687613727
0.6034029392366526
0.5892026272768686
0.6056692905054863
0.5979018755709317
0.6075310940900949
0.5861999442791224
0.5998917721787475
0.5854142237175203
0.5992449102311782
0.5899745078189479
0.5897192074614857
0.6102488758878066
0.6198405199239587
0.6228240594058436
0.6245195431600158
0.637203530686519
0.6308762504904458
0.6220046105041297
0.6160215418916335
0.6111512923691251
0.582776079468184
0.5907128782018942
0.559048056034525
0.5708194577618761
0.5697399965865839
0.5783859775699847
0.5594711824684752
0.5769269130963772
0.561265958349843
0.5811443243914602
0.5738456800145133
0.5785631695605411
0.5918629393472965
0.7467309129503918
0.8754109537975611
1.0
1.0
1.0
1.0
1.0
1.0
0.8644033021719697
0.8327106673964796
0.7872759449611327
0.754429727272972
0.6870840170175603
0.6588858473388056
0.5868665699680192
0.5643956374704173
0.4953355853687594
0.4881414938641173
0.4583984198985619
0.46083772562072
0.44234352849742475
0.4582467430335472
0.43138328240242885
0.4504482611434768
0.42216791366307344
0.4248276179636415
0.4207125410713933
0.40971285138237157
0.3986960871079316
0.40057880810635005
0.39040770747521153
0.3779149556150304
0.3678609221052619
0.3500153784393182
0.3456318393073995
0.3255412287637535
0.3223886616369289
0.31232119441918194
0.3235953908460874
0.3159208161421102
0.34944526013553656
0.34068809880521533
0.381226170868002
0.39599312393336095
0.4426720394486681
0.4678082435570762
0.5174455574919976
0.5253188118636898
0.5597592987031897
0.5642470621078062
0.567613933750564
0.5675516480212378
0.5648340185141137
0.5655629700839462
0.5643608596079247
0.570383043505785
0.5580404645626683
0.5683928365606257
0.5474025989423092
0.5487072552724366
0.5496649126754203
0.5474218349168354
0.5423541569360008
0.557653018415988
0.534207354458827
0.5489392524044354
0.537782746006804
0.5505021940153146
0.5393960591890299
0.5533740490500556
0.5388214320708189
0.556156848679708
0.542817371607745
0.545774157156363
0.5448886448712357
0.5546243181031463
0.539028857582909
0.5591054824680896
0.5478144247100037
0.5499270443440942
0.5513862096433501
0.546751204696934
0.562263556971343
0.5453715937910256
0.5551368820747472
0.5680685467235238
0.5871046914210533
0.5779610146398524
0.6000718040359552
0.5810539897839162
0.6031776197433135
0.5993346354345837
0.5978220828622944
0.5940730587879501
0.6006800246275217
0.5639624313530527
0.5765211961172486
0.5501515360005398
0.5444574252280366
0.5574750203458059
0.5555745239512144
0.5421710130968511
0.5555203537516114
0.5484789547527983
0.557380550871105
0.5523357010628722
0.5650300404713903
0.5875223261007397
0.68108197178459
0.8689417701857775
1.0
1.0
1.0
1.0
1.0
1.0
0.8622288423796055
0.8363950310404457
0.7645181052603791
0.7231064656351863
0.6614987134068777
0.6211163575828282
0.5550186331816144
0.5001437869107622
0.4568900552881251
0.45304896809619233
0.43971667001298415
0.4379843608924189
0.42563374917535085
0.4151990088849005
0.4149613708948163
0.40625468985313373
0.40430620804244943
0.3912805869866657
0.3956723075760242
0.3785269009757018
0.3672070883250024
0.3499233365798142
0.35075541175841835
0.32048940914301827
0.3355316674721486
0.30076867528903306
0.30281370475627245
0.28563841215919444
0.29209916604980557
0.2837444396285433
0.31886326934045306
0.3225589861174535
0.3721390555639583
0.38309676938396287
0.42473570712421055
0.4561038453554291
0.482061774582788
0.5129694967956393
0.5261793598691415
0.5362306269104212
0.5389050413087243
0.5458887226301933
0.5408300096634042
0.558239032042733
0.539841745619802
0.5463584227694727
0.5444987951211318
0.5482503394717826
0.5263575438246191
0.5419112624302499
0.5248378470447215
0.5423492823266216
0.5212639089305166
0.5417202148162781
0.5366376134013724
0.5385886414265637
0.5251249579863663
0.5465913090049936
0.5300715942872125
0.5469443770626907
0.5404439248684996
0.5377801561881944
0.546766078782946
0.5468239463862539
0.5471101111676787
0.5481425428262168
0.5540706230896509
0.5488878225895855
0.5648035037430478
0.5409256989466067
0.5564829558219484
0.556714912631085
0.5739328755981103
0.5801413494616664
0.5917794306757557
0.571316624845106
0.6019400019557062
0.5889689745420895
0.6146155566628749
0.5892828522106246
0.595083027368654
0.5898721399968876
0.5816495018884261
0.5618736060300072
0.5624509326611022
0.5493984461692709
0.5592607910791649
0.5637005059419541
0.546006065724592
0.5585948590058119
0.5486842458429132
0.5562689625891031
0.5611098143708306
0.5703981689875147
0.556473883436146
0.6818010395688919
0.8437344609561009
1.0
1.0
1.0
1.0
1.0
0.9602833704027602
0.8348794107983041
0.808944084751176
0.7612569132556056
0.681378280320485
0.6512154413070581
0.5752820064117353
0.5347541599379305
0.49298759515331253
0.45289643044722416
0.44431090259218875
0.4293169061974879
0.4251342107801567
0.42435822407499363
0.41900855275660154
0.41284494077753936
0.41221435757007435
0.3945618268471355
0.3985181868307931
0.3690854988976443
0.3800588905949495
0.3494299239371998
0.35318055781310986
0.33038871219608745
0.33287283102514925
0.314463523823867
0.3198980278866603
0.30329819037415645
0.3151391644366342
0.31527437066138797
0.3439826281571961
0.358616027451008
0.3947221514095169
0.42694926365223856
0.4663586808129484
0.49375854740312636
0.5110951361902331
0.5353396950316445
0.5444095998498207
0.553012942805999
0.5374154106209982
0.5424081539998207
0.535912457542336
0.5422767658594623
0.52533842112475
0.536630804412897
0.5206001765358066
0.5404137090879649
0.5136495325023505
0.5336738589976944
0.5174141964628511
0.5295383685108666
0.5178175824405007
0.5266167172061678
0.5260699181273938
0.5310532700671178
0.52913218267328
0.537589571808627
0.5316054172857878
0.5404870029567903
0.5312016425614228
0.5359635136537669
0.5356901937874319
0.5273154816747494
0.5396332565550314
0.5238382365728792
0.5453935542119336
0.539187706751083
0.5567777848373495
0.5614811207577362
0.5734303036895355
0.5694213125918166
0.5935446325013103
0.5659504571847551
0.5805499745876388
0.5549270622770773
0.5616101180295195
0.5340788587170396
0.539559147016194
0.5238194716125768
0.5331810655558111
0.5180366950499289
0.5206576273480151
0.515891714103561
0.5248341177509072
0.5209354456832878
0.5233893688948547
0.531434217560522
0.5547024239065665
0.7332561534430334
0.8639524002842851
0.9909744704243622
1.0
1.0
1.0
1.0
0.9502256975975131
0.8578535932905567
0.803703425994291
0.7486506040238112
0.6595189217430463
0.6268602718189705
0.5296510424036339
0.4912518256088526
0.44752884980660246
0.41248405618471173
0.3998007903691609
0.3935684459474075
0.38655575097709105
0.38584720492918473
0.375105406697373
0.37358410021063204
0.3601587918094671
0.3500830624051084
0.3386887971458273
0.3284387308379204
0.33226452453536987
0.2982187538631863
0.3001196492683934
0.271950953268807
0.26704066549109196
0.2575326441373664
0.2594377689948934
0.24848234918952888
0.26526934316213197
0.2712120896199765
0.30127980120010395
0.3189880613961408
0.38173135058668034
0.3880645455913584
0.4364531543908998
0.46513654720807657
0.49331195881887435
0.5130175905939781
0.514159763059949
0.5120479075861178
0.5139486325735642
0.5104834355531267
0.5181426399384601
0.527741960502903
0.5085826819502428
0.5226973100276218
0.5021705516584881
0.5206463550739605
0.5000960023157865
0.5145586625039809
0.4994484553995471
0.4988465147409918
0.48897244505921966
0.5000785237716762
0.49860259833645665
0.5072664518670424
0.48680153494424694
0.5024038948545446
0.49242024389684813
0.5014950762694209
0.5051629176898632
0.5055355071534193
0.512182864269451
0.5023404122189518
0.4990184811224008
0.5028323953083353
0.5062752969322558
0.5179446050449037
0.5280912535495309
0.5331369076880559
0.5500658186566668
0.5346282859539351
0.5653392289333828
0.5519534109572535
0.5529141758748788
0.5514361284466425
0.5489671042203653
0.5150065325126204
0.519289510310156
0.5045392863062458
0.5049204470985373
0.49973420445826555
0.5088155715006364
0.49380018515049917
0.5013569194617316
0.5003834946991372
0.500130505383615
0.5262849933971091
0.5111646591193448
0.5722279875198669
0.7637243216999925
0.9492951505676526
1.0
1.0
1.0
1.0
1.0
0.8795272020288637
0.7980630333307334
0.7473118887995431
0.6931530235674513
0.6514739822510505
0.5870282914820153
0.527958847394089
0.46258544956976966
0.42913092392701174
0.3926330611911248
0.39136475606176846
0.3842397385093702
0.374553933890798
0.3710962975045188
0.36618374051195507
0.37399275855723546
0.3604914414059914
0.35319569919679167
0.3415971521546866
0.3267866396978973
0.3224133115667135
0.3203460992763002
0.2973298401542129
0.29330285786969534
0.26129001143247865
0.2713898773801675
0.24351867689471157
0.2545644223358744
0.2508889303956597
0.27293155671929037
0.2828845172470941
0.3296065136076681
0.36008075323536765
0.40416846782284005
0.43433996847672496
0.4725678661395394
0.47975916051941114
0.5011196014122247
0.4817608944706594
0.498851854990119
0.49708784397217454
0.4999905101714612
0.495101943709932
0.49589020341454015
0.5000141973069598
0.4893073776792396
0.49827730490798994
0.4805358518309236
0.4960259836781666
0.48348510270871464
0.495684286689817
0.48591880838420715
0.4972409675305938
0.4910804035006797
0.5052763648363339
0.49245585395059666
0.5063255438741121
0.4958637249260812
0.5057495818857696
0.49229920840970076
0.5116041916236703
0.4940494149391327
0.506025524067456
0.5031745359318742
0.5201731120911355
0.5358475526550481
0.542807740095223
0.5395521205491609
0.5384376855737217
0.560457734401344
0.5413031552840584
0.5477626065642719
0.5307021622697247
0.525504403802004
0.5131350314885176
0.5010277295685986
0.4884255931052198
0.5059832440842903
0.48201767981673466
0.49890981058721084
0.4818401643659217
0.4981428855123748
0.48565999284201694
0.5077653270298145
0.49538470921329647
0.6135502650778715
0.7847438081007392
0.9573481842893325
1.0
1.0
1.0
1.0
1.0
0.7884921731332719
0.7715867617405696
0.713301365572158
0.6634029142803229
0.5901042100587605
0.5474515277116965
0.4753838178659115
0.4340994491378679
0.396586037809179
0.40017716896103234
0.3678753992020993
0.3895494208342485
0.3613279230566337
0.3722978979947899
0.35174124402101165
0.3582135000770109
0.34197235032904344
0.3445928488111621
0.31796953129841843
0.32582610390031447
0.30698375097211617
0.3057189536888148
0.291347658798834
0.2834931124193813
0.28083793195055495
0.255082324837835
0.25967541220497814
0.2512549145335989
0.2536676112083346
0.25209358456410424
0.2777350742253758
0.2885630573085415
0.32975138413813554
0.34345247793042777
0.402045331474781
0.42199141726238487
0.4642831920238787
0.4704664040808354
0.47978866748969784
0.48269266203842714
0.49176776545941275
0.4812489497861221
0.4851108578736178
0.4764058973854163
0.4899829513381163
0.4750945471052753
0.47746579824298124
0.47834086548844323
0.47048636468604776
0.46712202320340096
0.4611369396663433
0.47430907848291826
0.466917437209748
0.47695311884868613
0.4696876265036691
0.4761493922444335
0.47553245558288443
0.4799103538947394
0.47723175437076415
0.48359697315481986
0.4790709738696415
0.4902995674076167
0.4750984644497437
0.48442437570760316
0.47055901042466763
0.4869881083898564
0.4745443593690336
0.5102134660891021
0.5150588503729849
0.5276943080026802
0.520920730303635
0.5347674547195809
0.514887494237745
0.5101664501878618
0.515511234154484
0.48205072533214244
0.4892736478986315
0.4560271484098658
0.4732806224790136
0.4636951315894109
0.4676451604685866
0.4665821885775062
0.4699475835685976
0.4673779987794905
0.4915022947281025
0.4629124927232716
0.5334950426872774
0.7148595493953958
0.8786463513299058
1.0
1.0
1.0
1.0
1.0
0.8187190645412297
0.7732858030275795
0.7204382654217447
0.6534070997148304
0.5951077790224868
0.532345097300496
0.4852292818683613
0.436486284276348
0.384618521003521
0.37946732792119553
0.3618425147243616
0.3671625556035244
0.3485752637393341
0.3568000718838747
0.34100561737424806
0.3473367773410221
0.334788512620012
0.33016686062894346
0.30167108033563905
0.3166297874142968
0.28549622411884984
0.29539819519818494
0.27060722279603566
0.2600993858984812
0.24852375438700897
0.22779464548435663
0.2288642607401869
0.2204223638844746
0.21879257909758593
0.2319334139501732
0.24607360092754474
0.26365706585572407
0.30648865797538194
0.3357586175753129
0.3893778962717869
0.4125264321240404
0.44260764066871544
0.4499864187136121
0.47091198281970187
0.4652229739619173
0.4832248214233152
0.4727803772878022
0.4806163681432908
0.46506484451004815
0.48217952003776576
0.46378871088809487
0.47519417344862747
0.4604376060198412
0.4545036527671787
0.46162637159871805
0.4607431842168774
0.46776093403436836
0.45838478747865274
0.455867219567364
0.46368528566355527
0.45957692302865427
0.4611318557533778
0.468621923151147
0.46172960848347594
0.477899560348081
0.45595123351249756
0.4777044128414615
0.4588084806404747
0.4757380404852971
0.46444079397921295
0.4804118750905066
0.4818401574558878
0.48883755744674595
0.47981933431573615
0.5111952542248975
0.5072617862383181
0.5227849653537472
0.5052643848391666
0.5274008906644572
0.5088248241520608
0.5252460185041644
0.5141972233793076
0.4916731234690558
0.5022267696029648
0.48719034325269855
0.48130281801988267
0.4865765109336434
0.4846804060001528
0.476429699272232
0.4894160265050521
0.47492270078596344
0.4986837091910684
0.4924296609805586
0.5020238348498691
0.5191544106042923
0.6845031986347295
0.78981846287267
0.9661753583215313
1.0
1.0
1.0
1.0
1.0
0.7946939061315677
0.7389619980030333
0.7024651584520736
0.6401626780018288
0.606428263326551
0.5711686070794046
0.5002251756639258
0.4565884383604536
0.3997092367092071
0.39718185951023544
0.37282725973273223
0.3787236326744431
0.36186903260617254
0.37345569659853384
0.3470428542374873
0.3661122076290505
0.34422799207973104
0.35680509094169277
0.33216426665010546
0.34350306890130905
0.3196128670789619
0.3353614428429818
0.3112920429064756
0.31736238320436383
0.29471156719068786
0.2921035107001129
0.2716335441636494
0.2693370358620586
0.2511836037020473
0.2617752873853512
0.24781374894872651
0.26154134560510095
0.27469682296977294
0.29015250426459593
0.3306317588786201
0.34546359570423035
0.3792263012325986
0.41037616217771433
0.4414304100241083
0.45303798200658596
0.4824136388381216
0.46717329009179415
0.4900743405280279
0.47868770225519164
0.49011711874028385
0.48117307654822994
0.48737812501889266
0.4788791146512697
0.4919991600969884
0.4713698004220099
0.47993768653988533
0.4686990629303239
0.47177097942577956
0.471667065660773
0.46918356281796153
0.4727333428459339
0.46931031757038877
0.47365743240746083
0.4729010120867946
0.48086029431740246
0.4759868014162615
0.48837630687585304
0.4714290338214302
0.48609723669812543
0.46952003788828944
0.4911983794312479
0.47406875039813967
0.4804187993771095
0.4745511665314096
0.4857224626409195
0.47905880963192604
0.4882674871810625
0.483559372659217
0.5169918229049095
0.5125706185788296
0.5298844333781069
0.5175932282381881
0.5373971940780902
0.5201835269500787
0.514146060392312
0.5201886349568718
0.49666514336533274
0.49271972939897973
0.47702855516626264
0.47440620272950634
0.4793483617716511
0.4899920219182641
0.47410016986941683
0.4896804715245976
0.47743584016911483
0.4980468601033425
0.4841365007588407
0.5018431995107199
0.5262897514183864
0.6889976426941649
0.8137873956410612
1.0
1.0
1.0
1.0
1.0
1.0
0.8312482587243608
0.7827236796319916
0.7413522183527096
0.6785440007518525
0.6278079132608121
0.5706138453862497
0.5045579746126199
0.4652414184896109
0.42025683366966876
0.4115406169966852
0.38893857585802627
0.39018367419298794
0.3784308203568928
0.3835783956381097
0.3604766129718927
0.376791649987877
0.34766844117610907
0.353066010074607
0.3478256588672912
0.3492644670690553
0.33346013677965025
0.33235500213182734
0.31272861675872154
0.3152969793452435
0.2945790458542153
0.2881243116247315
0.2761047450446007
0.2677461432111484
0.25724734359753015
0.25684095794845774
0.2507421719039943
0.25601638405284527
0.2791794097028988
0.2940599146009362
0.3313508666348159
0.3451389052815779
0.3873051080305066
0.409468523778187
0.4443594427681248
0.45727965387110137
0.48305380798058684
0.47466190860756274
0.5002940641656883
0.4799054803211251
0.48529440438379867
0.48693401687138416
0.48848933661908306
0.47963479807557075
0.4971726374834019
0.47501617797488543
0.4824624583357634
0.48576334085571754
0.4763016291912587
0.47826820748347326
0.47411741930954515
0.4805425150139917
0.4780984481676744
0.48357385677085435
0.47778973915401385
0.48342866177046007
0.4686884771047577
0.49504381102200323
0.4710229343502895
0.48699423509162026
0.47792048158362527
0.4928212551089574
0.47975594201456273
0.49854733818701896
0.4780652346810325
0.498468351365977
0.4825069196984283
0.4976773001671786
0.4922758528448877
0.5000254465747134
0.5119744701424205
0.5293326377084342
0.5280303835188994
0.5359278120427217
0.5396304921900811
0.5546853735927092
0.5546357786776787
0.5420219997043171
0.5460717427200412
0.5199346557668323
0.526897840322613
0.5005903155106132
0.4992014442122583
0.5015894479224874
0.5178867277105816
0.49470862084763334
0.5146746435231113
0.5052101124344824
0.5034000381082849
0.5047816928193467
0.5148691837897763
0.5037179763505071
0.5410578447962678
0.6871849361788215
0.8625617597395552
1.0
1.0
1.0
1.0
1.0
1.0
0.8186878027318569
0.7890445829089433
0.7540570922522776
0.6769858539986566
0.6508439681878141
0.5988792568127398
0.5507856985420231
0.4852542293491899
0.4482821024972431
0.4026146873483466
0.4185495413245124
0.39203827111683337
0.4048239552027981
0.3846208326402638
0.38555648764708705
0.3761330108268143
0.3834765819649769
0.3672201367421142
0.3767008004754803
0.3602170795335943
0.34773744317067096
0.34804950054804484
0.336235552581424
0.32900330248118803
0.3120617940116885
0.2999824229188695
0.29795760266233984
0.28694373729480704
0.2687460274359784
0.2769894471027323
0.2636159113176713
0.28725921514370945
0.2873732062191373
0.3196031951579594
0.3322130056050076
0.38522628436397166
0.38171285201834076
0.42796710692802353
0.44162970614200586
0.47088161657498057
0.48845438167330757
0.5083001967248103
0.49450738395321564
0.5142686836828514
0.5001128550946001
0.5056713860668173
0.5094573501000262
0.5021025356668309
0.49959074181069213
0.5024795243806566
0.4992005719477552
0.5001382517441509
0.507402046716062
0.48997177134103875
0.5045266139009725
0.4865864139669914
0.49852215790127624
0.49385951832522823
0.5059695376034644
0.4943647064973927
0.516922201716199
0.493347126090947
0.511708432931923
0.5124818748426051
0.5108751359941056
0.5056955070162645
0.5124667223048083
0.5000667384785829
0.5164113230565924
0.5012112363070081
0.5121410595437226
0.5140929880171614
0.5099446495114264
0.5220666652833255
0.5251706319813657
0.5391164599107346
0.544377170636269
0.5482670566795771
0.5433856351886269
0.5667154583269529
0.5440021146017677
0.5669328102561523
0.5529906209177174
0.5539062964266334
0.5258633202637171
0.5213594793538859
0.5078207137367698
0.514576222605462
0.5059080683121108
0.5194104451868742
0.5055667382262089
0.5246337535549565
0.5079944840009516
0.5224287183852808
0.5184673633827382
0.5480268756608516
0.7214992488248728
0.9075232134172051
1.0
1.0
1.0
1.0
1.0
0.8093234183585087
0.7862327145391415
0.7111150438394079
0.6661837949115608
0.6081196179603648
0.5879155744537503
0.5004048295732985
0.472662213563498
0.42072680612807023
0.4217905256006449
0.41183752583314776
0.41035182046241286
0.3970901809537491
0.4005236775839359
0.38386849571980436
0.3954036578757748
0.3730007451626029
0.3805264214503887
0.3602812910223235
0.3597216980198488
0.34893525976471373
0.331633081048419
0.33014415605671965
0.3123074797162161
0.3120915911291483
0.29254317130161633
0.2980319326064405
0.29488444428773397
0.30572702402929086
0.3216010225067044
0.35290156646177645
0.37168872459896685
0.42456594276650195
0.4437264109418262
0.4920621892871912
0.4906064777144404
0.515001410286163
0.5138173591832357
0.5196587383890641
0.5187889411164656
0.5186960190438922
0.5188268262385803
0.5166247174577591
0.5085789376605808
0.5042092129402297
0.5058671176242872
0.5022609622760974
0.5088870428431386
0.48584677333192267
0.5086510560461452
0.49434851556780846
0.5164899423367108
0.5036340213946506
0.5212410896213299
0.5248013196243329
0.5474562998718371
0.5404562429880805
0.5975815779835731
0.5833174000494342
0.6684029757068709
0.7147008660917828
0.8321919234679498
0.8162431417943603
0.786376681624876
0.38153958597000404
0.0
0.0
0.0
0.0
0.0
0.0
0.0
0.0
0.0
0.11978792789189785
0.18280411505783362
0.2344011946069892
0.3089750569817958
0.4578957943960029
0.5792704315214667
0.6949111789392568
0.7221017172018327
0.7787080381416223
0.8001756332387695
0.8498246991243785
0.8724581815109829
0.9175916842705265
0.93045716387801
0.967810054504391
0.9846425888733263
1.0
1.0
1.0
1.0
1.0
1.0
1.0
1.0
1.0
1.0
1.0
1.0
1.0
1.0
0.9858377941960175
0.9364346556524478
0.8361696600428022
0.7856930942929354
0.7315026417336422
0.6820129732203429
0.6240962379676723
0.5981450077346355
0.5708643679666736
0.5497216552795441
0.5260176710654568
0.5367001262822259
0.5242107493257306
0.5226651141901459
0.5053046468602381
0.5052431980866396
0.5082744880997636
0.4993744079051588
0.5098826594376021
0.49374874178197803
0.49579192184703597
0.48196343569917294
0.4907883243716623
0.4753824363396146
0.4877545267017944
0.47897721007351557
0.4882694172008349
0.473266448476346
0.4803100063662439
0.4744126471715657
0.4767385175270341
0.45663280320717525
0.47452175855504786
0.4568453569721725
0.47290384664041135
0.4520017548167222
0.4637335728627107
0.4620091768877181
0.4692375621692048
0.471800642930264
0.45781150176497165
0.47242526318935313
0.459297710647117
0.468230788202524
0.4536578465202383
0.46768462994227533
0.46038622867716333
0.4578181906980472
0.46100387169628537
0.46180925622895674
0.44794884463469026
0.47538929829104604
0.452632653962911
0.46305749992620004
0.45165369654352644
0.4855270346285375
0.47377844720383244
0.5062712570804522
0.5060788519515128
0.5082208199715577
0.5112584739733264
0.5112555119837324
0.5100266251406294
0.5129486354280838
0.49437596415049256
0.49393259862064787
0.46855502703619745
0.46035805144927827
0.4740685689119628
0.46841030658659777
0.48127955549904267
0.46274342662057383
0.48356298745161136
0.46386958492098956
0.4921461695813609
0.4954514106152493
0.6807334626820111
0.8888033637174046
1.0
1.0
1.0
1.0
1.0
0.9610417121598764
0.8357507913334219
0.7325715755973308
0.6614515514160411
0.6155213693305938
0.5585033868749927
0.49468202868375666
0.4325612985133776
0.3996124075940377
0.3762236705280222
0.3668041637232422
0.3549748569541279
0.35739806241755945
0.3475132589055582
0.3445574402015693
0.3278984918525253
0.3437556780185445
0.31509667425768667
0.32609515772197206
0.2795702642757144
0.29479311984117984
0.2518698436946523
0.2659101809272737
0.24422483674170584
0.23069223185346227
0.2125346919413693
0.21262761657595525
0.20458105704591434
0.2150453553844315
0.22783966540475215
0.26227292491375886
0.2951739339128753
0.34430566698730947
0.39938497760696584
0.4401780119363522
0.48921237669651196
0.4983785618953088
0.5290003507403499
0.5152743349945972
0.5277134819835029
0.5218810789849375
0.5331767488806406
0.5166391969586113
0.5223876091429933
0.5015256509367512
0.5223748523462196
0.5033196359650193
0.5185456723713138
0.49352302102509293
0.5176558354933377
0.5039937803184545
0.5165260216655795
0.5128856217043427
0.5178511680834927
0.5302001917234531
0.5316507743943543
0.5206456488796427
0.5279869866780771
0.5165077464028065
0.5282428918733768
0.5287696454992192
0.5151616524923599
0.5423845913553599
0.5205130310544565
0.5655222643679937
0.5525309930347148
0.5702440264661961
0.5555460096533571
0.5782039892417644
0.5634886921283087
0.5671236541648479
0.5495063049347049
0.5678896925895023
0.5190708170660386
0.5306332094277971
0.49818889818443723
0.4999446513454625
0.5031544842379144
0.494630904853984
0.4897679988013185
0.5077570253804392
0.48736962464157285
0.5056566770830544
0.5121183765716353
0.5074144961009077
0.5278393309521825
0.6766764244446677
0.9197201023716097
1.0
1.0
1.0
1.0
1.0
1.0
0.8876029799341945
0.8740077871485225
0.7964715393277461
0.7309390620818408
0.6412264856124102
0.6009807003048352
0.50305815790885
0.45535888184423534
0.3870144836004643
0.37452806646717046
0.3575217645810412
0.3492204308413121
0.3461467579178614
0.34486457871910936
0.3362008452340897
0.330918236097931
0.32371011041539743
0.3190059041050804
0.32295899016408186
0.29211086441095846
0.29627803289236454
0.26733771320400346
0.2718179842556373
0.24675170823495418
0.2439636533050233
0.21235419882098888
0.22580802117469573
0.1893586755855392
0.21273762244353933
0.18289169813136566
0.21328435420931421
0.22663899799462742
0.2615976720798131
0.2986190362093988
0.34742200665253853
0.3887453347329212
0.4283860107873819
0.44472588231053567
0.46913709743802556
0.484247049450787
0.4923943024850856
0.5073207268001247
0.4861217444123415
0.5098248599201423
0.48726486131958086
0.5015086586101145
0.4844767669245166
0.49206850554617876
0.47953647152706724
0.48780939031289333
0.4744599849367302
0.48200713768528447
0.4726338383458244
0.4968930510188267
0.47232078236222785
0.5062770126233739
0.4788046131682681
0.5114201044343563
0.4922431292904494
0.4993883513903561
0.5090615044895742
0.5041230195584204
0.5097253688147712
0.5135326035324309
0.5129481245564207
0.5068224174068988
0.5046162984530024
0.5085374644560281
0.525104399228297
0.5411038601596823
0.5631321871979353
0.5497685734771529
0.582936784417447
0.5660325442905885
0.5749734202163101
0.5555226443252644
0.5808226316850824
0.5388388696437595
0.5429640974197516
0.5205940376154861
0.5139277400766482
0.5130092569778153
0.5288705900619648
0.49140972859265863
0.5110791147104796
0.5047125733592512
0.5107882289076144
0.5233933033162242
0.5051007626951199
0.5153746802126993
0.6657282688877323
0.9333833544214579
1.0
1.0
1.0
1.0
1.0
1.0
1.0
0.9954375281557322
0.9193934497085152
0.8194072296030838
0.710057454064364
0.671774374381299
0.5727860356512187
0.5128756545224105
0.45024610290321804
0.3955979061456972
0.3570806139623171
0.3498721435264465
0.3367719334320293
0.35464332016863753
0.3339610668707267
0.31563626041201126
0.3293876940758925
0.3038749250879361
0.2986530674211791
0.2915811164604329
0.27235290562893566
0.24610470559494688
0.2701785519863456
0.22084739832160277
0.23602757029646707
0.18766719447694924
0.18269756225547665
0.1503282141042968
0.15392943916418708
0.1278470948207661
0.1505483071177555
0.14274274572153117
0.19507610151750637
0.212557279697704
0.24245788498881254
0.3054978253441284
0.34844787255441273
0.39262517799022695
0.4392643177107045
0.47252642488178687
0.5111009792541032
0.5265512211750939
0.5141680723584527
0.5259274907531554
0.5141472157679263
0.5352185086549559
0.5169436183202716
0.5365676973267804
0.5297539352824111
0.5172159052732381
0.500596219494875
0.5201375332592271
0.4943587714549162
0.5244208212937446
0.48930134568053524
0.5050740865993315
0.4965147319212867
0.5044129527358151
0.49226518518453954
0.5038544215371525
0.5006647394668917
0.5037047854922262
0.5044917534690042
0.5103456418187705
0.5037793088236966
0.5038994073185374
0.5146838198111177
0.4934972475265359
0.5314975678009433
0.5166081689382662
0.5610202295009452
0.5503560775517988
0.5698541059824463
0.5641204406072906
0.6044930636063911
0.59422558926077
0.598668498646194
0.5710031528652212
0.5820080416257836
0.5416689532353914
0.5522470263302729
0.49948181027739247
0.5343548264522495
0.5283745873746463
0.5244439666593722
0.5388390728190439
0.5371161186999724
0.5251083643201061
0.549076136636556
0.5306263801439817
0.6247069914145985
0.9066523828028163
1.0
1.0
1.0
1.0
1.0
1.0
1.0
0.986215531383037
0.9076267769470274
0.8225229028576294
0.7273089867345082
0.6886388253251019
0.5467627579424204
0.5144514540118997
0.44281287285207716
0.41811032059580083
0.3931663078514555
0.39179400603612935
0.3804143358380222
0.38320800822006573
0.36072491670703855
0.36711390195773375
0.35609361160877157
0.34876076493278096
0.3380042460397946
0.32391308690866033
0.31828569970406506
0.3049966139157241
0.30951309883473377
0.2648749486735139
0.2726633255712585
0.2178688728904037
0.23033780820641886
0.19751203557412542
0.20355957202680264
0.19509605047000086
0.22262879696009322
0.1980210035700703
0.24940722102685992
0.26804884181815425
0.33573963125874645
0.3660177196375822
0.40103878942680476
0.4450662666582853
0.5117519708000811
0.5375094069423014
0.5678251078596201
0.5697383474683058
0.5742793969078084
0.5926976793192821
0.586689449322755
0.5853040187069868
0.5697041690854825
0.5739509551303072
0.5513933964377126
0.5785326478967759
0.543308823457098
0.5696938816624677
0.5469419167003691
0.5691337717995241
0.5498321186962092
0.5549305667540612
0.5550123262442243
0.5840430025404592
0.5544294745644469
0.5775290461480778
0.5522542824163155
0.5671838219359417
0.5537877906607448
0.5666649446853402
0.5674593300540003
0.5743674252190524
0.5674704779249867
0.5687064023339634
0.5749624000629642
0.5674939381166776
0.573501116580022
0.5818764672430404
0.612725526260584
0.6042147730122054
0.6340179620763073
0.609547364361217
0.6494195264096483
0.6242386375006413
0.6237226640849134
0.6170929844865233
0.5888173137787549
0.5692710055150693
0.5658949995416626
0.5364579524553619
0.5681852624362713
0.5517262238797769
0.5483047433433652
0.5540895489958548
0.5535157631606583
0.564843579242331
0.5692448963984932
0.576585150697641
0.5696254439332689
0.75469610033865
0.9716091120314168
1.0
1.0
1.0
1.0
1.0
1.0
1.0
1.0
1.0
0.8815144319516521
0.798943551464486
0.7009376533692935
0.6259819077226876
0.5389453917948421
0.48354502916614345
0.43261207359629433
0.417071994113236
0.3987506982192407
0.38279773326444777
0.38079733669319377
0.3687290872094652
0.37704721953191733
0.35807322395948943
0.3486625869029987
0.3394462088776808
0.33665180591938765
0.3048034517225139
0.3095325031651296
0.2790399071716133
0.29693284276482945
0.26413566801198407
0.2713695084409493
0.22121715997239452
0.22813413571421962
0.1916720448634997
0.20901534111821163
0.18619594856243568
0.2103594335761169
0.21960698874596477
0.2520723764030922
0.2812168647329635
0.3367236289000359
0.36424127822578595
0.43447679449433263
0.4586610836108731
0.4892602138725318
0.5343811965460897
0.5339353564732111
0.5450777987508526
0.544685788986492
0.5652093704703083
0.5460251556928996
0.565758319526673
0.5361856984746777
0.5498469050602737
0.5327674532197003
0.5396432631682978
0.5315724169085495
0.5534280988122647
0.5139903822351097
0.5359725004139987
0.5041575501987355
0.5311504968655805
0.5126643702705651
0.5142187685186956
0.5026194025256884
0.5238430595177012
0.5078608035177052
0.5248744153473883
0.5161302564622579
0.5189549668242999
0.5337318574079207
0.514006584487456
0.5246076392421822
0.509022101903963
0.5179140893357208
0.5073482475001198
0.5228717623488802
0.49894504963090486
0.5319534843237943
0.5183349532779072
0.5742853115794792
0.5456305907348037
0.5767620323288533
0.5606082425294325
0.5884585749001431
0.5720743269393497
0.5795367445289942
0.5478911781855871
0.5546031467665248
0.5215962943698971
0.5186152278410903
0.4854574986696923
0.5307915374529688
0.5113492754380721
0.4973544495819012
0.5121162682610116
0.5014034194446714
0.5237258314562342
0.5277426659501128
0.5208577116671693
0.6257531259617117
0.8880616584143214
1.0
1.0
1.0
1.0
1.0
1.0
1.0
0.9601748946492185
0.9195607615418158
0.8536846076935583
0.7216273029864192
0.6830817468921009
0.5615051213838826
0.47323954598057866
0.4174891661798374
0.37429587020276356
0.3556124423659674
0.34174207905449955
0.3350843287865951
0.322892906968059
0.32395256810638995
0.31136621629894357
0.31827898156134865
0.2788750218832122
0.3027041528788349
0.2689573351908224
0.27135577803632105
0.24857183084795792
0.25845174504829965
0.21148729430730304
0.21371852437787275
0.1793711460598617
0.1728574635380114
0.13670516441804414
0.13539856097982814
0.1294954029195216
0.15170881326433383
0.14786083902582772
0.1901393412820836
0.21488162685065526
0.27132314999268
0.3057024373518237
0.34504279210939304
0.403857340010574
0.4404157914667838
0.47458256938958626
0.49367251952795765
0.5095278985808804
0.5003339678322715
0.5306754176017968
0.493167138871981
0.5277320813616908
0.4974046481653375
0.5042103396465567
0.5043622482124038
0.5234666010341227
0.4891727034221418
0.5204880744478589
0.48593972081970227
0.509562592150817
0.48660294587363984
0.5035546271687623
0.48971078359077247
0.493279757073471
0.4914847639105372
0.49968369155067166
0.4933587104508635
0.5018392260795391
0.5047038162503092
0.49957918334571394
0.5219185392028965
0.5109735002885205
0.5215458809752028
0.5134503564537176
0.5162504146172018
0.5040881697935431
0.5292130603215487
0.5122858954153073
0.5636579435504127
0.5472733883705512
0.5804202728241792
0.5374935531730258
0.5873235863045038
0.5686495410445439
0.5881444739228772
0.5781170837844786
0.5538792835296633
0.5445094933679403
0.5376266135387221
0.5002803437232164
0.5201830315832205
0.5091705901823225
0.5208664179053782
0.5124308264067897
0.5145289882577132
0.5290222518642039
0.5212940576975142
0.5233096996772247
0.6226040942284095
0.9211301374075687
1.0
1.0
1.0
1.0
1.0
1.0
0.9363225283350214
0.9682288452762127
0.8619532283701187
0.7775192852271792
0.6708998206165212
0.5999909760286194
0.5009850075201463
0.4394008385234224
0.3822409232384052
0.3759631002101003
0.35161730753635617
0.33745255017141274
0.31787434886815896
0.311270067250964
0.322561365045383
0.289807357393309
0.3056673669873068
0.28820235722272564
0.28021680041166713
0.247101240060078
0.23837225301134715
0.22306830078208426
0.23152939758192076
0.183558368445136
0.18818042380020866
0.1445871014705838
0.1546083519109846
0.12847987678807032
0.14292673067597214
0.14653069549210057
0.16824996503822426
0.2025826728642584
0.26317185396713866
0.30259816369108156
0.36591810495581145
0.3915226500246666
0.4221670644596981
0.45420360185368247
0.45119224129678026
0.480465220324927
0.45495961629523674
0.47719908286625456
0.4630907754772828
0.4718881390473297
0.45127111333699615
0.46476136519217154
0.44913351965801274
0.46452534179546145
0.43369364949502065
0.46369240913933985
0.44036456423593695
0.46524700949392966
0.4474681303009612
0.46160402756647184
0.4656311290466725
0.46566205082601747
0.4615744721890998
0.47613261229920834
0.46677448943852784
0.4759606300907306
0.47557020731228417
0.4811003837797716
0.4923215261072394
0.47511580497024697
0.4967316183215629
0.47990855353468476
0.492673313972228
0.4808282902890495
0.49749987407498625
0.5172462872224565
0.55346156850626
0.5299580365321312
0.5619880357336547
0.5461842493095673
0.5768647047796883
0.5439600185454837
0.5611913034495355
0.5358581348197736
0.5202953671784496
0.4910120125318717
0.48039862403937994
0.48988827747589364
0.5100447317449641
0.48436843652384054
0.4891263188135966
0.4892838525295903
0.5080382970748973
0.5194242078728566
0.49785377085466676
0.6265764428969117
0.8952824508930626
1.0
1.0
1.0
1.0
1.0
1.0
1.0
0.9886442577630566
0.8613703118483171
0.7303623102257365
0.6763933177943452
0.532679927303604
0.4701289592514171
0.3840242649177191
0.3784562581909758
0.3436925000263834
0.3659740795140503
0.3464975582909278
0.3292510655196345
0.31510865935109633
0.2994357517353278
0.3073233826311036
0.27165673502021725
0.2819119637703973
0.25273233074589735
0.24931453047730784
0.2096572386036401
0.19935828726768462
0.18997623599821312
0.18551467903580723
0.15151176861032312
0.16860119594598721
0.16109380683331992
0.20892123814056265
0.19758699988560663
0.2690890790079833
0.3240821182237937
0.4018779598796405
0.437611724281184
0.48626323355277395
0.5127904888113323
0.5087455756545267
0.518845840153767
0.5169993128452541
0.5173837086944583
0.5167281599286173
0.514245300837298
0.5102380531467209
0.515713073032593
0.5109974963568213
0.5161005078361919
0.4991758513233117
0.5144748418500378
0.4785544475446543
0.5053521061722503
0.4863092169925289
0.4917932940718887
0.48975456219538727
0.4976549657489526
0.4966426966395311
0.512024274659734
0.4985175684859011
0.5120104857806737
0.5062382614901864
0.5279782832758607
0.5060235966201696
0.5182817310798954
0.5225047719541254
0.5170155994900504
0.5296092191996637
0.5191811503402916
0.5561019193122736
0.5745979325038999
0.56352508868815
0.5631370479354612
0.5903035903152254
0.6027370681237375
0.6158424025264935
0.5997152519131761
0.615658445846013
0.5617191179315005
0.5861228294946415
0.5330462486045903
0.5469523266985181
0.5489197724506734
0.552945480962284
0.5445056124144985
0.5516793928637591
0.5414210263610302
0.5666497904727551
0.5786432907457608
0.5595771149948614
0.64846515739705
0.9731115027323856
1.0
1.0
1.0
1.0
1.0
1.0
1.0
0.9916285597850084
0.8866079664068595
0.7946729669497671
0.7384336353332204
0.6325295805012439
0.5417491224290198
0.45399153367517353
0.4343089692629027
0.39532597590942464
0.4270207456987677
0.3907884372974258
0.3999858516175509
0.35776677947514823
0.36589209669192047
0.3298433193929839
0.33296573362050264
0.31990521677171185
0.28722596672499984
0.28207664442142827
0.24921558855888182
0.24016397496805567
0.1803760605511846
0.20109051598526695
0.18176422323851926
0.18957487646154333
0.20258671654988913
0.25343416895194026
0.27845645355236825
0.3421019554051071
0.38325398044773007
0.47277619564705287
0.5129530668709668
0.5456948020554373
0.539409763578562
0.5842530242734438
0.5571174496360841
0.5832585278045114
0.5655530478388354
0.5836967419786115
0.5585541297332507
0.5656654456389474
0.5616231494958515
0.5538473634887724
0.5570712083474694
0.5500463657227745
0.5668290179409888
0.5612263495373752
0.5576341794168862
0.5490813383067321
0.5520913077266913
0.5483902428489313
0.5553735417472512
0.5453770894947525
0.5723211686063194
0.5533642794412067
0.5785535769522857
0.5495121060431019
0.5753107701821409
0.5670038310207095
0.570052113021782
0.5682047529889691
0.5798463931454836
0.5977512258245653
0.6109690926698672
0.5986277696719818
0.6189954062004819
0.6184364062422267
0.6292512367022647
0.6287663436572338
0.6294567890520245
0.609364417872079
0.5840408146697567
0.589024299287806
0.5644925235844138
0.5793642155925072
0.5778870806885849
0.5774618340948153
0.5703712036711351
0.5916298966527755
0.5622133930897738
0.5971909076251558
0.5717130333801256
0.6170166904487104
0.7673102762612418
1.0
1.0
1.0
1.0
1.0
1.0
1.0
0.9684221163858775
0.943731936709997
0.8679432979826662
0.7679674982026817
0.7150851403915288
0.5973399773241479
0.5497132494810206
0.482953317344995
0.45363156254889275
0.4184084055917931
0.4228526841072706
0.40223464715206303
0.40563790243780984
0.37502945358577594
0.3916888964943935
0.3509195741358708
0.36884809658089257
0.3378212296293434
0.3489041747720982
0.3220639811579541
0.31206085298749653
0.29700427387362455
0.29634593088978306
0.25391283995587616
0.2512432588781458
0.23879898407971806
0.23065920719977062
0.2174098239339688
0.23019534469963357
0.2575054557886417
0.2780732903224429
0.33952364848037214
0.38561395076456517
0.4463659329140852
0.4815859956480666
0.5124537575590106
0.5319601979358748
0.5628146086923297
0.5343475850483103
0.5658424364640957
0.5380668449372055
0.5737684943987011
0.5585585944311783
0.558289336846861
0.5440506173438701
0.5578267241630177
0.5369266498388787
0.5510913878734998
0.5270150232540033
0.5473416633050987
0.544104093956064
0.5363699003071762
0.54151156583548
0.5311769437203494
0.5401660921704218
0.5274848113173366
0.5333750419087898
0.5329516841804511
0.5538630702645794
0.5455470124944146
0.5623197417631375
0.5348908469895297
0.5676302912606929
0.5426247374638906
0.5486053989893602
0.5345297722304453
0.5501486248732677
0.5329336944161747
0.5530971854940694
0.5459280834252485
0.5848581104805548
0.5912083688277818
0.5912247705742085
0.5953651119328434
0.5983757669796668
0.5987712721801545
0.6047490910392466
0.589599274342784
0.6075369151517721
0.5809703046152837
0.5544287478864584
0.5638128067664752
0.524774933464062
0.549972721869592
0.5360539053421395
0.5316634158907465
0.5230959289083743
0.5575487518110094
0.5308319842800924
0.5579769917313986
0.5399627648053744
0.5658249926088031
0.5520648737997987
0.6639704510961285
0.8141594832366124
1.0
1.0
1.0
1.0
1.0
1.0
1.0
1.0
1.0
0.9743238148506951
0.8564820385760885
0.79135901643807
0.7120233231672333
0.6619544780396042
0.5758361193048607
0.5163595883702662
0.4348363739834432
0.4305804330666737
0.39471991171221726
0.4023942264490595
0.3916983243305395
0.3974195142120636
0.3732971737303399
0.39478862865746667
0.35562564598158775
0.36552039958643356
0.3431041714967993
0.3361837003184836
0.33110165692111926
0.33266489362737545
0.30659238638906217
0.29810652968386625
0.27753628180377204
0.2581008710060212
0.25670539393556335
0.22158152321310234
0.2170615701301703
0.2070133393287079
0.21957288423086357
0.22359462602160143
0.25844034998801857
0.2782353234762685
0.3357568038829507
0.35470817609204586
0.42810387035688297
0.4600403175125146
0.5050601831998524
0.5224377425989284
0.5535734473387592
0.5347232345237743
0.5736943499185215
0.5540956372119323
0.5606141968395038
0.5668703527325899
0.5669240091818758
0.564620319361082
0.564465990764997
0.55279026153358
0.5495914356112268
0.5608369347431187
0.5485962406508222
0.5592974482910694
0.5291313618470939
0.5674663153912488
0.5282983903877414
0.5342721193181875
0.5421241140612613
0.557739801897139
0.5230962321387952
0.5526266670222879
0.5281805920102441
0.5602471973653715
0.538718404552642
0.5510994937712053
0.5433922884789928
0.549314273649651
0.5372049403183199
0.5463221785080099
0.5418733813768094
0.5589506150559963
0.5562282739459048
0.5427838231108477
0.5612968186422539
0.564682940999458
0.5912400245232491
0.5886969066465153
0.5866602442118847
0.5900712945260346
0.6139757497967674
0.5924043131626852
0.6049585211487202
0.557613248031487
0.572447682836134
0.5545493408894252
0.5522038536708389
0.5260019145634978
0.5424661981735681
0.5341380815210729
0.5376539604262731
0.5276457754489271
0.5488406863832466
0.5524102782545885
0.5409481879482643
0.5658651058919997
0.5398994470131682
0.6223084280271888
0.8519968775491327
0.9980306106571895
1.0
1.0
1.0
1.0
1.0
1.0
0.993662690554449
0.9561501703192018
0.9196805251642799
0.8657771961475239
0.7388148562886927
0.698350882550133
0.6156977666948485
0.552704015558995
0.4807825891735183
0.4573467681337454
0.38524044333012436
0.39192737855351917
0.36799063143362837
0.3629616974928818
0.36086596519520364
0.37631189267746734
0.3643705464438393
0.33297705479304635
0.34334976257294725
0.3179505053338382
0.3203641466810069
0.2957107054466161
0.30021651075770583
0.27669432710663333
0.29005904109169417
0.24249432596416381
0.24477716417505507
0.20637319476833435
0.19977462755985598
0.18391859544383982
0.19278228188977362
0.16611781967574787
0.19568797608550978
0.1702795324560701
0.18870869465437362
0.21299377314814844
0.23998541555875313
0.25978866173336973
0.32410357196930983
0.36149271076652006
0.41573446355134686
0.46969787327095097
0.48341909529104193
0.518855050540408
0.5289984912369785
0.5403732372213146
0.5340423798539147
0.5477638033458613
0.5325953855686912
0.5631704901559362
0.5141728916539611
0.5405674075445139
0.5203410503451662
0.5324576866735019
0.5114752678770728
0.5219523178444669
0.5126761213967763
0.5323841801479341
0.5054848643380837
0.5304483194185058
0.503946238496733
0.5323687639316711
0.5209279002039948
0.5199385889629029
0.5265851065104673
0.5382747854373696
0.5279711106758465
0.5293697548744011
0.5212039964078262
0.5327249020232687
0.5344621276390165
0.5358140573734731
0.5410347794540616
0.5182967632569344
0.5451441337641189
0.5288402398717711
0.56833963564783
0.559260999133285
0.5799088550895364
0.5623891384748652
0.5929514333827072
0.5731722947840565
0.5713256371834208
0.5441238110053026
0.5620128641839405
0.5266119041306376
0.5435896386814107
0.5207047075502438
0.5149508855148878
0.52602250693521
0.5226337500799074
0.5183251367239029
0.5298188571204461
0.5443097328037837
0.5451720539155132
0.5584822732433561
0.5099851357506608
0.6204869123704586
0.869402639308101
1.0
1.0
1.0
1.0
1.0
1.0
1.0
0.9926654944305249
0.9454457979222515
0.8208892423432198
0.7688414650691091
0.707165575842185
0.6381275884474436
0.5533208157596159
0.49100580707209784
0.4269839406956665
0.4054036305787518
0.3955451460555771
0.38657953287170344
0.4020451572453402
0.3701696677738529
0.37501250844176726
0.35736125221069565
0.36437226347821133
0.34407638448373584
0.34165586430330774
0.3158279128227742
0.32981920807729825
0.28586668994993697
0.29681994254611554
0.2617752173535919
0.2624835537484503
0.22490310975874053
0.2229144492012015
0.18710770041274216
0.21047731142352463
0.18059571079762207
0.20251826941332057
0.21680720473994924
0.24261692913171234
0.28012287293547766
0.3191424209139747
0.3521700167648378
0.41319602014667145
0.45334568419005505
0.4890690752476584
0.5261210733203991
0.5186270757818724
0.5492419347078732
0.5312846954994799
0.5436612030793703
0.5260828627243088
0.5375157713664178
0.5247630071207373
0.5299776448212378
0.5053893330561424
0.5353869876111365
0.5085638542958432
0.5289395452110336
0.5038435595826891
0.5164663821964266
0.5145157888078129
0.5105836373463777
0.5089570605880283
0.5252253102535029
0.5168948254678856
0.5211493811608918
0.521867535348495
0.5219155480435187
0.5274374972215692
0.5191589393539485
0.5356387697231104
0.5104707900179051
0.5302156413922388
0.5114122253148549
0.5233679694990973
0.5157202397029264
0.5349072476422702
0.5132886603960274
0.5567478646814068
0.5494184966678676
0.5747699730506449
0.5524725530885823
0.5789019814782048
0.5672315736958742
0.5789989663923046
0.5274028464548898
0.5468063972020676
0.5179878959267046
0.5308301044622015
0.5116528218261248
0.5076782309100552
0.5006861434936584
0.5019031096284727
0.49790636639616126
0.4894383590321654
0.5108692422301919
0.5208599995109469
0.5183096618101878
0.5376510081991792
0.5261111312239143
0.6099004773793749
0.8768476410752133
1.0
1.0
1.0
1.0
1.0
1.0
1.0
1.0
0.9415440902569742
0.8785321560079125
0.7571299110043851
0.6913325543217134
0.595290619812863
0.523450195265619
0.4547983974959632
0.41993791688387816
0.3910337234589324
0.3729276178975263
0.36616134289724456
0.34980111770379374
0.35598579220825827
0.32838514691961584
0.3467818856081702
0.3148340397758105
0.3186108516335622
0.293253197210383
0.29077534555466905
0.26697585724963935
0.26454156071078516
0.2334137019287295
0.239633000507011
0.19806140255873164
0.20324593019014392
0.16899821896838976
0.16665815695224628
0.16474761046519787
0.18028064272683825
0.2009274948780301
0.24079165937836086
0.2756019984094022
0.3168108754403332
0.3759240166682573
0.40875923649162277
0.4698542379180862
0.472562568613135
0.5115188253982559
0.5051351742115198
0.52044127511052
0.5004275454411532
0.5078986231508907
0.5001062345459489
0.507168420710254
0.4863379225702049
0.5099460300945966
0.4784779992468263
0.4931127809260684
0.4711641951232798
0.493037923288422
0.4862040684516381
0.4821592603617998
0.4700788702356383
0.4678622971012367
0.48341879736977766
0.4794475274428371
0.48092923241161706
0.49375572981449334
0.49952004763344277
0.5027601177283226
0.4712910644901217
0.468184142773045
0.489641591563952
0.4817890767303764
0.49852491795461623
0.4726000638405462
0.5232268380187557
0.5101717345383319
0.5445075205375735
0.5150931974603594
0.546424056831606
0.540074207948362
0.5204464870686151
0.5187279228237138
0.5156694076547653
0.4941609038951797
0.498067459059982
0.47164214582232533
0.48447366507637996
0.4859356891975117
0.48583732012516656
0.47887447722222704
0.4817962793642058
0.506516770855574
0.4897882473478566
0.5154705714192105
0.4997002680062096
0.6111658368166223
0.8832459883241285
1.0
1.0
1.0
1.0
1.0
1.0
0.9636281135525998
0.9152285304180333
0.8277286372987434
0.7333750346493272
0.6829914166299689
0.6066881089286389
0.5031283530006048
0.4347828308139527
0.4027050256172404
0.37220841090974943
0.3812635170220939
0.3726761916949052
0.35667299652174683
0.3491345626091749
0.33616683558232807
0.3500438963282143
0.30675324550175076
0.32033659888247945
0.2945524933144639
0.29803395441522096
0.24871403470551207
0.2614156499028097
0.23130738991003486
0.22001010695336828
0.19188599136809562
0.2172339013696992
0.17523705397289113
0.1979641237302972
0.19533182432364166
0.23044381252792823
0.25620605045305817
0.3029296988311433
0.34538957680039095
0.40127496748471103
0.45279467486609304
0.49882302448975785
0.5188604165029425
0.5203047371663005
0.5380747633933207
0.5229106345812693
0.5370934940597802
0.5166055067565132
0.5269062969676787
0.5116419459660813
0.5224063671995233
0.5069894061868341
0.5063340318974359
0.4948873569695224
0.5144657853564464
0.47831512014746524
0.5122143203569012
0.4864446852380083
0.5111088920513776
0.5037348698231029
0.5070951505384702
0.506809830324277
0.5037424513113087
0.5080791781195454
0.5125789704266129
0.5065470877874171
0.5100926860055053
0.5035165840418004
0.5067812567183421
0.5167264479174222
0.5120627879381011
0.5251193846585568
0.5296447861191682
0.5771909103594418
0.5418965364675667
0.5813898904395296
0.5672154567653674
0.5775259275742031
0.5545630598463422
0.5523548233365787
0.5077544655454724
0.5152365399506309
0.5029431433162282
0.5093885990635031
0.49984724640981215
0.5061441485143673
0.4938823819601483
0.5111412623710361
0.4991216043472374
0.5223432936061413
0.5257315446349419
0.5385856664170073
0.7629880720924934
0.9839745218116149
1.0
1.0
1.0
1.0
1.0
1.0
0.9755448685084485
0.9071962518053773
0.8457209815861123
0.7212006643763909
0.6626088322889506
0.531649264048206
0.4861385932253219
0.41862745776796195
0.40507547360477736
0.3754848856945191
0.3745338516548209
0.35256000854601977
0.3495722601073503
0.3308483811362158
0.33759099943536885
0.3226947318757018
0.3206254290899546
0.30254642216719396
0.29469755008875137
0.28507639282517133
0.24916459667334162
0.25509464952131955
0.220831088177926
0.2166234906894262
0.18611532354448
0.18562412207863122
0.17593535342758745
0.20164300821927822
0.19095630794978224
0.2533331107838539
0.28971850717748115
0.35844795619711434
0.38043656436193707
0.45794710247747245
0.47889945228637726
0.5038190737877396
0.5058450140264574
0.519441109348514
0.5251707310317204
0.517762952114621
0.5147043642385983
0.5133830727075037
0.5111525165537696
0.5006072517230274
0.5006682354208123
0.480902451614738
0.5172849438940511
0.5035018806471758
0.5067308184315988
0.47660892122365495
0.4996410674052635
0.48194689485808684
0.4903701229213427
0.4886787557879558
0.5083689532592597
0.4856358882590495
0.5063762447394724
0.48669849057779696
0.5115062455896917
0.4788346198522267
0.49152279758765377
0.49869911512044923
0.5016954613143746
0.5065637991006533
0.5371215361920908
0.5472047307695631
0.5590020235116813
0.5420130678386689
0.5548571205829077
0.56613842136017
0.5618062988858195
0.5763134304133741
0.5256083350155245
0.5439020996760454
0.4995518148097301
0.5116628733768335
0.49200051659435895
0.5128479989510958
0.46569635733325326
0.508246434439784
0.49467172198780734
0.5207510179189404
0.4892300633490815
0.5970515977471491
0.8408737210004018
1.0
1.0
1.0
1.0
1.0
1.0
0.9744116174037813
0.9010140920690759
0.784116646937752
0.7007224140954529
0.6187312620100668
0.5554346477019421
0.46779865224696043
0.41212210816832373
0.3605775112600534
0.3713788579714685
0.3349602762447577
0.3543964434869582
0.35226789724790636
0.3393635836294295
0.32369550540231345
0.31862843938378027
0.2922785824801667
0.303299616429057
0.26809528443598196
0.2683081270459956
0.23209819058910522
0.21778314668382434
0.2017430303126468
0.18327844259178794
0.18200099216456023
0.15976451156183025
0.16840740551482497
0.18057036034267915
0.19907623455772877
0.2441236316882717
0.2939821346055493
0.3133467218867638
0.3992953313373021
0.4322766317496499
0.49084294361798325
0.5015266737439276
0.5389259872495599
0.5371984912317843
0.542244626687432
0.5362814501367723
0.5522389726143538
0.5316111327681787
0.5437781073316559
0.5106220597336664
0.5335817705409129
0.5263197609382855
0.5250233727829816
0.5295152792132932
0.5220070789771942
0.5278346979753061
0.5432551106203812
0.5337450906328234
0.5244786094777988
0.5372013025351629
0.5310706879130452
0.5534757878276639
0.524192307986387
0.5444559354120255
0.5446198963473442
0.5514037311684651
0.5332177569077318
0.5579730744295028
0.5373152017274646
0.5639419408312321
0.5406149714592574
0.5986097250636429
0.583239297026798
0.5949987650141881
0.5897709194308913
0.6174235904142724
0.6083480402149302
0.61649136423941
0.6026264288077618
0.6054009691864912
0.5750948823618658
0.5507838920793691
0.5481695901664246
0.5344657583406996
0.5502597570947322
0.5444888793396274
0.5457018741918185
0.5387976271302662
0.5535356258221681
0.5594731608556225
0.5648800094474671
0.5798565457083701
0.8384326861318978
1.0
1.0
1.0
1.0
1.0
1.0
0.9818269449822509
0.9625094451072223
0.851587287680692
0.7647376160789829
0.6991726475971224
0.6530714194983768
0.5314138056704945
0.4755550833797534
0.41179032525563153
0.4158521724644503
0.41214381017378654
0.3813971733609248
0.3775780101112517
0.3550851071029119
0.3704402549189852
0.32742921725315133
0.3528485081351998
0.32746009976755863
0.32314322599768863
0.29634938354963414
0.28545904997714616
0.2556535826915798
0.2507448110264501
0.2232739537722764
0.22117605408801938
0.18924150286916408
0.1992190990869062
0.19019922153138627
0.2209524446616375
0.2550984752275624
0.2863153298822359
0.35507205987614954
0.4086846596058349
0.4595279452056523
0.4847137798381917
0.5035028850880008
0.5166052107153767
0.5415258903030444
0.5346494671915741
0.5460713395475709
0.5228879768388918
0.5469954076411497
0.5064506338887454
0.5369107700197344
0.506678273399595
0.5131274221947091
0.4957810357563548
0.5152377149347972
0.5009988651665906
0.5206316911926953
0.49623955070917897
0.5167997895779942
0.49676972455979673
0.5163487412602442
0.5136956771613742
0.5093158210851058
0.5120924190757598
0.512373192941437
0.5091295521693272
0.5198141877262754
0.5059533107682905
0.5108506540428769
0.5379179040967044
0.5067467444293912
0.5248398697085105
0.5159384050598244
0.5618712909533043
0.5650485377697904
0.5649702344421437
0.5524350030800316
0.5928852702250963
0.5669066859113316
0.5754738466677625
0.5619196617043779
0.5708774769217904
0.5519384072403007
0.5319191890069288
0.5079402677126102
0.5056213103453244
0.513553377186218
0.505033712741136
0.499470032534503
0.507824729021163
0.5080004976809515
0.4867214194854596
0.5266103718787478
0.49351195903025735
0.5838698769530464
0.7827622361785875
0.9465526261223449
1.0
1.0
1.0
1.0
1.0
1.0
1.0
0.9432067909340504
0.8569973302112537
0.7489016862624959
0.6683117426035726
0.5843912914113641
0.5071797143603171
0.4553693789747647
0.3854213743059848
0.3427005172964576
0.3415870793633237
0.314600838483185
0.3187905927215395
0.3022783450853809
0.2913962232828833
0.2861410420910242
0.29120003229879543
0.2585874021937827
0.2649172056771122
0.22823722381513667
0.25350234161385726
0.22103320318662703
0.2196492172771014
0.17867885851783324
0.16791145877157337
0.13908585474879195
0.14792924794228762
0.11261015768336775
0.12259863675411423
0.11066845000059673
0.12603116519213242
0.14423118881123648
0.19508536616705938
0.2215483997405098
0.265850320034344
0.30389288125434133
0.35232447837046194
0.41134387233838376
0.4353402159998758
0.4764190779473534
0.4862300275812902
0.4954464412475822
0.4885666299861908
0.49946463581988854
0.47956383519212986
0.5026074029031727
0.4899974384656347
0.49358825971530457
0.48252741815763356
0.49054532192470646
0.4589632319545795
0.49546333730048053
0.46737169335656087
0.4859641197062686
0.4655584399717614
0.460209791324041
0.46773571925319396
0.47587508455727595
0.46915154163634637
0.4660825767518489
0.47137337186992195
0.47194859461050537
0.48038375609757233
0.4709014387235994
0.4819372647650145
0.48255726563314927
0.49290208989369033
0.46430052095269475
0.49644964823605814
0.4646507465651763
0.48796698067819044
0.47619940395272503
0.4971222635610341
0.488610776206965
0.5376197057246394
0.5134361736879397
0.5577967419968168
0.5381767818672701
0.5614106099900429
0.5392722971085029
0.5488958238000491
0.5490125077260448
0.5448423482159495
0.5169661485551107
0.5023122662403589
0.47608640982789996
0.46819301911917377
0.49554145718491993
0.4901009127298278
0.4834452609255412
0.47804736801687575
0.4845006308999776
0.4711270099091311
0.506535906307102
0.4828066255689235
0.504752555355981
0.510058434800534
0.7135968412504186
0.9316196607278535
1.0
1.0
1.0
1.0
1.0
1.0
1.0
0.9367886718557361
0.9080943369057067
0.8221415609493716
0.7261375144078313
0.6842016240061023
0.6390963174057468
0.5589841307919899
0.4549807045040281
0.39816817213119
0.3240679726462601
0.32318772884984553
0.2954292665345334
0.3037823851414698
0.27971515499567323
0.3052999718089026
0.2673885691381869
0.2809093582891618
0.2558405041104352
0.2525860975321874
0.23430155358142332
0.24013471090745
0.20483111952148253
0.21977757076878382
0.1814758069716099
0.18395492186772203
0.15043345027449107
0.14219732316670855
0.1383107538458257
0.12474298578125191
0.10320560630655122
0.09652952804130752
0.10375738203359992
0.10011402767538695
0.1330088510140369
0.13985964553280644
0.1758088225140333
0.22145183287620568
0.2834133337253648
0.32264243154226835
0.38966455816126333
0.39529121109159604
0.43554693289713386
0.43513939463760726
0.4653274207643154
0.45414086786713515
0.46314123022054127
0.448633591857026
0.47603993381028464
0.45024120060269
0.4723118541315702
0.4481249479797541
0.4517051156950999
0.45437545457210876
0.4437264210195967
0.4512507553608801
0.45004997425687054
0.44702831473542093
0.44972739743494783
0.4473175149835679
0.4488004903011558
0.4496584206535058
0.44226373637654415
0.4586885690767707
0.44226212303639734
0.4538355412698002
0.4338763202133105
0.45447782123175057
0.4429831957053961
0.46684393542640923
0.437474120031809
0.47318059199728546
0.44215174511928446
0.45959043001180316
0.4680273246089527
0.5002830234430898
0.49052961412418883
0.5090243454211191
0.4918117826233527
0.5165697018087839
0.5112683369727333
0.5029005983120628
0.5228908653179142
0.48825218671916704
0.4846572162482715
0.46329761024425303
0.4520296173647239
0.43180209089835414
0.4583532275843142
0.44229951792531724
0.4558845698549249
0.4403392132925772
0.445107564309446
0.43297616027157587
0.4443502163034294
0.4409552216145983
0.4460014549111265
0.42131892929856596
0.612561992939218
0.8575294845256952
1.0
1.0
1.0
1.0
1.0
1.0
1.0
0.898534578735449
0.8342706324757231
0.7658318995076459
0.6710739903680054
0.606233942115775
0.5456521807795528
0.5070985376481728
0.4123114708659029
0.3805836745705653
0.3236294091335168
0.31172965287845533
0.27557781807410614
0.28953889622780193
0.25530320439566445
0.27584366492405377
0.25505866591466847
0.25511971644674547
0.2387548357917845
0.2318293363988905
0.2156628138153231
0.23222028527590055
0.2000302078439306
0.2004480871812743
0.19187304728174343
0.16533752436018245
0.16220764939333518
0.13197737626997852
0.1208622271771437
0.11128495331927168
0.12120426372550908
0.10042746689877284
0.12919911488971655
0.11825220332399958
0.17164702117489847
0.1819309969643282
0.22731562548931997
0.25693981661974163
0.33355484677512476
0.3592200942147722
0.42754553209004154
0.4146909788896257
0.45423460222656553
0.4531994175565447
0.45944708841702814
0.4542341270547454
0.4504886004110068
0.4537079243354224
0.4503388076568058
0.4356939840336877
0.4477790472828745
0.44201535900292643
0.43075569409385206
0.44816728902140657
0.43012588233794896
0.4500611585091421
0.4367245836885797
0.4435356721036479
0.43550928399191235
0.4502044382188196
0.4415284195388316
0.4652745842062937
0.4335689273517924
0.469845275268823
0.4414440523088775
0.4594794863113809
0.44208099622713865
0.4546800760124987
0.4446682605972761
0.4454474234835093
0.44810328154232043
0.4505160892077387
0.4499024379061198
0.4694048167765127
0.4802972332415649
0.5203911608598435
0.5174883032418045
0.5076672581205359
0.5297481737532798
0.5198770685968632
0.5284919449717782
0.49868636905061614
0.516898419563152
0.46254098437556934
0.47305722421804025
0.43534410855155825
0.46611065126170403
0.4626305669066725
0.47023292940740513
0.4341210501130911
0.4676049596471696
0.44983291570469397
0.49269341451653037
0.4499796738164338
0.5056411665994738
0.7308641562963016
1.0
1.0
1.0
1.0
1.0
1.0
1.0
0.9302929943728844
0.8532958241644117
0.7715811406074222
0.6730015463255746
0.6476939828329914
0.5166438108520153
0.45089191611286966
0.3555579009372486
0.3550800356846285
0.32272389555317943
0.32714825690428534
0.31134022718429166
0.32008977695414254
0.2835450620651808
0.2994862926366647
0.2637214234912593
0.280079227702098
0.2513672660427554
0.24666688061753983
0.22550906152222336
0.20805875107293154
0.18108825355149394
0.17662473220021974
0.14959956625070814
0.13751037493754073
0.13283519512544467
0.12589371697652627
0.13255616673441248
0.11902546933844418
0.15974958850747628
0.15811885785207158
0.22052522524162255
0.255060196088524
0.33131869965818417
0.38022637267151715
0.42370538478031444
0.4377584991401767
0.47521679188757054
0.460210622677159
0.48418621113841276
0.47102492845387267
0.47748432757845577
0.4572455827790523
0.4530195425838457
0.46228067684382373
0.4552014331604334
0.4711885119150828
0.4427800267548533
0.4596145816265224
0.4305659553525022
0.44230078936673056
0.4441534297778699
0.4558337292205488
0.4442262454612398
0.45227697820659507
0.4387827035765839
0.46395944689983953
0.43892858421009295
0.47644537784550856
0.443408834089028
0.47071788583946217
0.4427966167823105
0.49097902817555844
0.45677476970396685
0.45912141336403867
0.4575103515626869
0.46027958311671124
0.462698184450304
0.4755085890709574
0.4836085312528109
0.5141784148783402
0.5076150686691214
0.5210066921062178
0.5298932183676304
0.535206146900442
0.5263165801679032
0.5033529730170043
0.5141563331151175
0.47157584406813263
0.48571101496322433
0.4311395345028896
0.46489019423418565
0.45855991839415616
0.4760514472370838
0.4655849295326444
0.4956863092739853
0.4874932629202851
0.5096654843532712
0.4798191638082113
0.5602048726857507
0.7737606657217692
1.0
1.0
1.0
1.0
1.0
1.0
1.0
0.9512645724150615
0.8545004195557764
0.7644493525775525
0.7017491683521975
0.6423057578795623
0.513861172267727
0.4584931787377595
0.36677748665545284
0.36935941000156863
0.3306725239550605
0.3415781795823872
0.3163698271615675
0.3329657124035889
0.3007107662170732
0.3022799824225275
0.2761055282411806
0.2916372024369611
0.26343269268906644
0.26640689862006683
