MLII
0.5
0.634898151895319
0.5
0.36510184810468094
0.0
0.3036041139399648
0.32165036381941875
0.30085878982869757
0.26568536962022204
0.29182693509327046
0.2972283623315122
0.38735006558871676
0.40675280241856654
0.4298542207562027
0.4325509240523405
0.44959317177835334
0.4471608116959148
0.4711327726372856
0.4655813270580732
0.5002580179668608
0.4837953015571004
0.518053036259239
0.5317999478427241
0.5048427919014803
0.46615870752782873
0.47270357028892096
0.4325509240523405
0.48955975620278724
0.4174439759049088
0.4437199605787825
0.408108733670134
0.44587941757952543
0.44224546054697766
0.4450204824543474
0.4325509240523405
0.4527825145203976
0.45049257654263475
0.4654567917581218
0.45344200891092806
0.4245787309282402
0.4444763197210884
0.6713090037849139
1.0
1.0
1.0
0.7290932016620667
0.0
0.0
0.24495028571723684
0.37835915089348393
0.4684335555667348
0.46418533163687625
0.5083903021258276
0.5075546964565664
0.5298733960082093
0.5812187173497633
0.598475722549969
0.6003506417773166
0.6547364898130714
0.7236556406480734
0.7514633797841948
0.7892634870416406
0.7986471479489976
0.8638450973572814
0.8754428418101476
0.9130360282752559
0.8791179761091532
0.8740703258628976
0.8075078300625742
0.7750654926802439
0.6962697394116628
0.6575004975352715
0.5763852153438107
0.561456082416797
0.49609915458542125
0.497107911172802
0.46856845500181665
0.4640135115056891
0.4354249356245255
0.44506622686584374
0.4317923252396293
0.4417782253098908
0.4332743350108782
0.4637096107116899
0.48087000148977
0.485220313703988
0.5003444366510272
0.5329431210857595
0.5433503780903821
0.49393733584775273
0.4931168263213504
0.4290165134847615
0.46292752033343154
0.41750027714322363
0.41959676196157253
0.4103145739887274
0.43248727407062726
0.4173503602157034
0.43066265954046157
0.41614841307408135
0.4432896500207887
0.4160368266890434
0.44905046129246423
0.4316023300879486
0.4606781482991842
0.43219914765974277
0.43377005735708407
0.6753105807923875
1.0
1.0
1.0
0.46888070524449876
0.0
0.044789424735832736
0.2535514157666867
0.41407097510217755
0.423491327387768
0.47760253104883554
0.45485266286996096
0.5087172343522113
0.49681647367120074
0.5425438952387734
0.5432764138403343
0.6093470896302222
0.6112413834099328
0.6972547077380765
0.7189168754099022
0.7710054801601485
0.7948781638221923
0.8326623911173586
0.8337563477885592
0.8623337478771808
0.842001845024758
0.8101205789448642
0.7966442714263232
0.7284962300003419
0.6859940857045292
0.6016046958477194
0.5521497683584424
0.5160327586388807
0.4899783916061355
0.4523028000265855
0.44911082609867614
0.4222012351433636
0.4325509240523405
0.40224465793116454
0.4383867514069385
0.4223220555231501
0.4505981437360771
0.44402022694572035
0.4798052421905659
0.455950087916227
0.518039676740993
0.5312426291613603
0.5074418143784687
0.45094669592740877
0.4446214220408062
0.41446120749932325
0.43954950019252587
0.40462863830265255
0.381286427785303
0.39615595434889866
0.38486114437052066
0.4177298816029967
0.3904112894741333
0.40801790324148113
0.39579894997725545
0.4149134379851686
0.40334507838713013
0.43728996397972797
0.4205717519003083
0.3870197228759573
0.42757954486101435
0.7733473878989898
1.0
1.0
0.9916444787755527
0.37919753121278316
0.0
0.07770305457116518
0.24225793613950936
0.37464039500369717
0.411022103525311
0.44220819538184875
0.44815116758799334
0.4629770487392514
0.4875950218503863
0.5016417991839675
0.5195039961893679
0.5393059169570169
0.5842483949576066
0.5861590462337057
0.6280556118121894
0.6548212385673331
0.7275376041403858
0.7376178309738254
0.7790142330433756
0.7858675815516339
0.797022205611795
0.7883734684485793
0.7998554045730486
0.7565387590414996
0.7325695609365199
0.6896815804437402
0.6305718848869379
0.5841721100747536
0.5485392767836001
0.5215844179382085
0.4862217737252605
0.474762225745879
0.45232610130925144
0.44718443959119386
0.4314917107037187
0.449766149688773
0.42838442947295974
0.44040865623590797
0.4183470095735006
0.4570872151704453
0.4425796443569957
0.4748960941730568
0.47406019049391734
0.5153707622012524
0.5172997035051371
0.5238526270073727
0.45715581214516243
0.4564590796665671
0.42434134918616656
0.4273979292529012
0.4223777314409304
0.4223203394477439
0.4083886886511944
0.41034830099446074
0.4078314248581507
0.39818886778127494
0.3804005879447643
0.38638622440031367
0.40084831032178
0.39883016245409453
0.42456010691292684
0.4057310268766406
0.4358259146899474
0.3803227129592779
0.41250144156960233
0.5741192160914326
0.9437614972942401
1.0
0.8234299986609862
0.18245336604279502
0.0
0.09648432083688804
0.2965217245221485
0.3870276829181302
0.4149512907120142
0.4229324468357037
0.4348986322030567
0.4540692712494083
0.4944303009750778
0.4919130444773412
0.5280642974061398
0.5485805715425355
0.5622817211253945
0.6075596966477577
0.6366350643783665
0.6900247820556573
0.6819826835544933
0.7337839066548634
0.7246180965117579
0.7470884112137457
0.7338792535533457
0.7462421962087143
0.6989976110810641
0.6979439273374528
0.6173437447112023
0.589317329426744
0.5092634527105582
0.5196494464052301
0.4627156231432587
0.46860005342607025
0.44920373611050524
0.4295596746614853
0.4192211971895543
0.4431765908479533
0.425294433661885
0.4224637991763271
0.42484998222447956
0.43846405230158486
0.4535938535592482
0.44827759980655657
0.48013315111964
0.4798274405520879
0.4982559172526001
0.5176775800375012
0.48294010397856046
0.43883083734731254
0.4631877542934375
0.44194196164821414
0.4411512326135556
0.357626649184202
0.3942643360609927
0.39033774268825755
0.4205014327581507
0.4142930281023853
0.40982819452121805
0.41346205557732374
0.41463235826318795
0.4046930680960271
0.4218140825872072
0.4080226014136157
0.44080930006499947
0.41045867339600467
0.42353578455969
0.6019376171297015
0.8511352144093761
1.0
0.9209260611313546
0.49627847321731783
0.0
0.059855539703349336
0.2339344487252924
0.39048984516498997
0.4250891304205934
0.4437643406063553
0.4253084484907642
0.4644175785521377
0.47241584891764193
0.4923830388881001
0.5035338507651224
0.5416165267651689
0.5628490937434949
0.5939607499270808
0.6321955097431663
0.6480156783641603
0.6635456538557627
0.7139121122815697
0.7208837769860237
0.7308262586596722
0.7649447659652046
0.7587380940034039
0.7579747852202647
0.7675278944402892
0.6864000741252877
0.6026685304177205
0.6041490538750617
0.5245186616490827
0.5166993404953659
0.46755473304048795
0.45791317396334763
0.46559506693564234
0.443564231227926
0.41305723295721625
0.4452339439976486
0.4316430166561888
0.4372259001962796
0.41747717409380636
0.44053995630311943
0.43186541776406395
0.4597908127198025
0.46925821710991444
0.48423163126885055
0.49852047906390007
0.5218394602869758
0.487326570764146
0.4710992015682803
0.4269095584586253
0.46462211186902885
0.4733404281208006
0.44576122004011404
0.4379190007654622
0.39867167816515836
0.42644197707060705
0.4119843066390593
0.4291529973194427
0.4407086490419171
0.44034781460034844
0.39617031492665583
0.4301667858090978
0.42115222429767896
0.4395717001146213
0.3920967421159193
0.5253395333654535
0.7523328451779889
1.0
1.0
0.7040644418611699
0.05752464927891898
0.06325295968525876
0.26398714830478043
0.3828842349877757
0.42813579776273364
0.45400838135903754
0.46499007904498485
0.4752909727775025
0.498962288118382
0.5073702534311184
0.5323015133138195
0.5426139410741317
0.5937880411340927
0.610029160190239
0.6586973839229373
0.6689475471129406
0.7157353400641483
0.7272997005983897
0.7684470493329535
0.7455037789742732
0.7878320762937161
0.769387246376534
0.7621249621998378
0.7290110472841634
0.7084648219776544
0.6238965305678484
0.6028574310969478
0.5390605438532623
0.5328228945673545
0.5066159260573991
0.49841424633031534
0.4816744575940226
0.48090906230524577
0.474934640068872
0.44913745887609374
0.4879813567398898
0.462457794011336
0.4590926380313468
0.4793606534333992
0.4893777708385871
0.48722820061072925
0.520369351738576
0.5171616092396982
0.5344087560131114
0.5
0.5079121480935338
0.4687678063207101
0.4722501032498335
0.468614530527866
0.4629288248726488
0.4341463635346413
0.45335427169945974
0.4375294919237865
0.45167360160552406
0.443295549769721
0.45089659305153146
0.4429384233124253
0.4579950305132515
0.4516033959490075
0.46160524651939994
0.47162471682097296
0.4347619809150335
0.420382486491087
0.5967212514508405
0.9153109003842115
1.0
1.0
0.8775008230263135
0.24106056769947332
0.0
0.18942671178612674
0.31915675749055816
0.44367793230367986
0.4388340890467964
0.48512848670978126
0.47270552202779764
0.5090771893606024
0.4793578593095396
0.507866334009029
0.5500912875758238
0.5690284351338174
0.5995639983588852
0.6235457056591236
0.6628178992034746
0.7085452752366326
0.7084157461811127
0.7256124148851504
0.770819598146055
0.7931798275599883
0.8115094237778744
0.7962805006257252
0.7827911203750212
0.7258935570497715
0.6659056478444344
0.6180800345155577
0.5708548862712097
0.5042007462529803
0.49949082799264516
0.45595750070034324
0.44392692345637447
0.4402762690045132
0.44804209143855134
0.4317549577695499
0.4267023153238309
0.4158308755667601
0.4499299696788614
0.43731983756965576
0.440168777878745
0.47161304215876376
0.5056329387523044
0.5025742342183154
0.4656786733436816
0.46543061611722775
0.4230363405071282
0.43506489425553757
0.4091742753529961
0.40331727887503543
0.39412223114303
0.41848060976669615
0.35917841089016955
0.4166429985860044
0.3757849073931959
0.42361825289172206
0.3983885692753787
0.4200794138027703
0.40420401360421343
0.4343059939535962
0.3721072683372683
0.4747163712611324
0.7555310734567501
1.0
1.0
0.8039602232089802
0.11620528453369791
0.0
0.23073250065173187
0.3441114224711903
0.43546743386569553
0.40133870157170914
0.4652515155066415
0.47738219607094773
0.48169027615223714
0.46489779907379897
0.5259582884694554
0.5511288729077662
0.5685231198259572
0.5879938305234168
0.6357118016413672
0.6551323967160159
0.7193663160062828
0.7353783369402406
0.7809787327891107
0.7420456261951212
0.7510747111188415
0.7425050546627435
0.7103132847045461
0.6587841946735086
0.6221498404255519
0.5853311554540668
0.5408453706705563
0.4964872919861881
0.4517068788080943
0.4770121041097581
0.4472132086492658
0.45161563856633097
0.4623948347759856
0.3824980340538807
0.413361526379379
0.4015073053793565
0.39794146671399105
0.44412552374803915
0.4363204314422259
0.464231737665665
0.4912184070026078
0.49517533151218646
0.451696177461321
0.4653501754049113
0.41090090178014205
0.39376262413815655
0.406454813019083
0.39115967041018107
0.38834387937691073
0.39861298503751486
0.4054630398635308
0.3987638243222233
0.3999226698091368
0.37682784862899743
0.3849351811933198
0.37926486336837095
0.40526583927855037
0.402069638601818
0.4307274177703361
0.3572735080737907
0.4484237280490914
0.6958624895868282
1.0
1.0
0.7368406309679709
0.06946653849074566
0.0
0.19144418628319765
0.34398342691862654
0.3963703967173184
0.4121998116276241
0.4362789490642268
0.45467472339036
0.4640589302369357
0.48332108586264777
0.49906951342324246
0.5169213312972128
0.5605526271932966
0.5629394620023861
0.609114953561272
0.6429153312043203
0.7032984132941921
0.7021136051632882
0.7452507945147234
0.720729213701295
0.751935248651808
0.7259295861545926
0.72931899492187
0.6637322026106893
0.6426294037938571
0.5770369156508826
0.5305495071339755
0.4842110910600635
0.47728437068816126
0.4382926433912825
0.4471660215730422
0.43590424805669653
0.4326602277401966
0.42680658032945756
0.4342914487096222
0.44475095836115025
0.4532724208406882
0.4256243062549429
0.42340359219831736
0.4806935212584375
0.49127771274488935
0.5314704762124312
0.4609687829036857
0.45729487904896937
0.39195619952060684
0.4211774198977568
0.412215167179428
0.4034560852167927
0.3844727186995832
0.38550829475977844
0.37442937503408646
0.40231709027322626
0.3815151587817377
0.3952930234023119
0.4020243569005454
0.4211714030948671
0.38867015184038733
0.3916761781523236
0.39146911559858966
0.3837469251302278
0.5360850895776543
0.793061332229829
0.9795481141958622
0.9461754698519329
0.4310728046299774
0.0
0.10637252399994561
0.3111933720926454
0.3892209755142927
0.39161887162312536
0.43431132620914836
0.4234119233629331
0.45983139570212445
0.4508025155951156
0.4908659226434426
0.4799308057628771
0.5465608845019545
0.547826458654781
0.5967792145953051
0.6028617972658905
0.6405079523560362
0.6715412039329707
0.7152620485939096
0.7142502064415238
0.7102404978379102
0.7035462555118664
0.68382763835535
0.6770498608068098
0.6494419626139332
0.6113830989086713
0.5834736007638639
0.48807144659918916
0.4146895555715499
0.45976255562731544
0.4194033668657579
0.43013553515437114
0.40220325957195524
0.45166345754715626
0.42492145666666375
0.3932795900038828
0.3960834461431138
0.4287137549603536
0.4319243736291897
0.45082347403572076
0.4263427219507066
0.47671031198013036
0.4764234892235817
0.47275542628186373
0.4424863308731254
0.42957874398456725
0.4434367569612846
0.429710149763571
0.39638671333192355
0.40381979958444275
0.40139301288258605
0.41273996430656723
0.4168812377846021
0.4063514810850424
0.42524367292873
0.38327189338268186
0.4097823039481628
0.39708583159620875
0.4066682758440832
0.4046640681477786
0.39737456052473874
0.46304068419519406
0.7727938249381434
0.9999039579629038
0.9054953894770211
0.3885259970605999
0.0
0.1393104256900905
0.3003976751332531
0.369767245776623
0.3993127621795744
0.43087290779037435
0.43669065732468726
0.4604463331070982
0.47518048332468676
0.4824798619795314
0.47437188766406846
0.5142490522382864
0.532813682568913
0.5870686167054422
0.6095809143349026
0.6740805352748431
0.6911949318816505
0.7335483261384919
0.6845387459424821
0.7021999158367184
0.6900681095645439
0.6894981595527636
0.6306606476797879
0.6058784049247234
0.536345935083823
0.5065356067290423
0.48855390877268984
0.47468012015319394
0.4467808517955735
0.44983127894608044
0.43411145462901757
0.4022582728402525
0.4155440573112258
0.4189879201795196
0.4013592587061473
0.42507062602691503
0.4435585568959214
0.45027905031747517
0.4801494996272937
0.4973741013799981
0.4535936827395597
0.4441437149263511
0.4533966668645557
0.4637864160238453
0.4324664436341137
0.33881409333659296
0.37556806130561016
0.3807501606707264
0.405595675289233
0.4221013261294163
0.43455770393687965
0.3976521691096742
0.3933978241094849
0.37211895873457357
0.3927763722386929
0.384986626623726
0.38069232208916015
0.43759014355301434
0.6892636396021568
0.9953202108219479
1.0
0.7264411179269876
0.1049959187780499
0.05774350631163942
0.3021242478515359
0.3785038883390782
0.4222514261193438
0.41934924119076494
0.39637955545652004
0.4263691281334657
0.4609392169718497
0.46111512875887406
0.45124368819579785
0.493117204050741
0.535985301778443
0.5823125901822676
0.5934807696258017
0.6366169813002049
0.6610376988747708
0.6891821599968956
0.6511270574369605
0.661801940401004
0.6883820239248204
0.6585144440354316
0.6244332608613068
0.5630499581052841
0.5496973516706155
0.4975254301536548
0.45032499990133357
0.43078940683403044
0.4125476673311656
0.3968433674751145
0.40621094454390994
0.36632034101262156
0.3965344376798229
0.36883974010710224
0.3993451300513282
0.399128952312937
0.42115686179788403
0.42933751462293535
0.4397767077951693
0.43085597067128145
0.4755137301889589
0.4650623948658715
0.44526764484309245
0.4329119210672886
0.4249490101289516
0.41669730838411556
0.42129585832039373
0.40627545818528404
0.37181118819007075
0.3854709646987873
0.3710806469967808
0.41332389681205306
0.39119805459268187
0.3836985376471982
0.3935178623207058
0.4056206143011433
0.3828716829229316
0.4225152601091807
0.3731448377990552
0.4337880278130236
0.5667714979025543
0.8870425990304138
1.0
0.8319510818601124
0.25612843781943295
0.013962436767794984
0.25540899431322883
0.3225425893908994
0.4275163221596615
0.4203641360814334
0.4510419504162175
0.4520115227356891
0.4680072598460502
0.459826468506786
0.4841318596460068
0.47916816533919926
0.5140477280431894
0.5443091863129946
0.6017071357425416
0.6114888296114497
0.6661048794540025
0.6564814679130883
0.7087820869087433
0.6854569288680563
0.7198867344403345
0.6878362118420986
0.677391903850838
0.6323364093930605
0.6041533719671648
0.5579942811019057
0.5433071588878713
0.4434551187643844
0.4700957139626314
0.44393700359963617
0.4491419716664491
0.45000089745134453
0.43252667420439284
0.43755877027286993
0.43293885136536037
0.4186138671799585
0.43232903890258384
0.45946074536287673
0.4569386307198225
0.4702919315609603
0.47586960508752113
0.5099477114391671
0.47754404882326096
0.4677243239002773
0.42542739517736994
0.4448337219685919
0.4505818980779412
0.4182280951291494
0.41416311906674713
0.4412043220720667
0.4202168217688375
0.42657238278875625
0.43705519944514426
0.42722072390519256
0.4196994733306991
0.42076279189590926
0.44740428665518267
0.4287776271782174
0.44874952738744406
0.4281923655891201
0.4409163163875635
0.5551363967931995
0.850203846410427
1.0
0.8503076265744225
0.23775267970381825
0.05093389090208174
0.2461769112121762
0.3739036584667806
0.44180243297560484
0.4647518773189601
0.46697735709067684
0.48719643899719145
0.4899277071622105
0.5033272725517133
0.511840825030785
0.5444167351947413
0.5658113530509835
0.6065042377899093
0.6227397028817018
0.658995715138708
0.6946548324844112
0.7188337563484659
0.7089506280364251
0.7197024625142616
0.7463552402700682
0.7324272154457296
0.7382730747589179
0.6838449131774391
0.6665578324206083
0.5969380233796462
0.5732841251540576
0.524268331578982
0.522547066959137
0.49286348506164834
0.5026876059213006
0.46842578804733986
0.48375376521251356
0.47136114493685655
0.4888502681883005
0.4761627939115584
0.45499134768212224
0.4622433368738627
0.4989393619479718
0.5004942895157268
0.5130909719377053
0.5297885391617193
0.550046390773088
0.5355235106539887
0.4883019299142123
0.49003286555045555
0.46841623525316783
0.4865462982464191
0.4591038323393929
0.46302094902419066
0.46042426595150215
0.46984999815651773
0.45020012553572186
0.46343483339049857
0.4541072864606672
0.47599432230851046
0.45549019717777045
0.45029759360712757
0.4545774398381299
0.46810155945319176
0.4635068675422044
0.45101131861185334
0.5220244298556969
0.7242658648576125
0.954848249922615
1.0
0.8018057339567066
0.2452390509926468
0.06602480675587312
0.24873454584832153
0.381600733941
0.4481261415018095
0.472540203735934
0.49000390698792984
0.5098348803314922
0.4966709867124708
0.5155899858042132
0.5229999154703855
0.5579646806539065
0.5593547522447662
0.5927558075647777
0.6196775571394906
0.6585104296178997
0.6804089172326522
0.7116492050244718
0.7162685417991351
0.7386602590253297
0.7564094551894833
0.7657108908968265
0.749171767171568
0.7410273869477553
0.7077772784306393
0.666122881507015
0.6445980686319318
0.5927607379011713
0.5498262972907879
0.5284462965781069
0.5240427855785508
0.4897906816714303
0.49348307675879355
0.48057598696311643
0.4952014132158446
0.4744925042518163
0.48885742769467866
0.4705519042083286
0.5049239603798731
0.4885551561268356
0.5247702364545366
0.5042381653900567
0.5221500481584862
0.5397647079496501
0.5674490759476595
0.536087322412627
0.5271652830178832
0.5159978322367238
0.5043061843887667
0.5039158293052863
0.5088877839203649
0.48285470430503813
0.46778703062602284
0.4778256641384564
0.4692038862031939
0.48472469680267477
0.4777134710409892
0.483810322864379
0.47542642256075773
0.4962945073331456
0.4804177924301952
0.49399249820616353
0.47917088618307596
0.4859949906010822
0.446570147970642
0.48597338956125036
0.5937498637419685
0.8191559596552404
0.9971730093081284
1.0
0.7599755701945663
0.22852632338493314
0.08546182795964548
0.2750626436113232
0.39861228031340873
0.46794267580941895
0.4846016001893654
0.5044222333426683
0.5193618395506251
0.5247115367581267
0.5403344574347967
0.5383536723499285
0.5758894582595404
0.5788321502418314
0.6137768276487361
0.6265726271344614
0.675219496992008
0.6874742676812724
0.7364962094881762
0.7388456383059147
0.7769343503840069
0.7716983708061821
0.7963821944350957
0.7765009236320768
0.7886861270350861
0.7699384202524991
0.745073941380744
0.7002474343905126
0.6727508876573196
0.6199003227768748
0.5808514014044238
0.5586767024058286
0.5429454848913075
0.5348773003687409
0.5197085219918391
0.5210821418711269
0.508744192129683
0.5272169942395617
0.5021854566422235
0.5328196473460384
0.5096683050356322
0.5295210399755622
0.5329974266033085
0.551632143732631
0.5341980384447915
0.5867305471497317
0.5758611853922262
0.5836735264573398
0.5510435930641192
0.5496901871800717
0.530794082071097
0.5307345140349331
0.5362976951520428
0.5301454191628477
0.5313707529291818
0.5247931101230181
0.5262025761286904
0.5276224218383405
0.5418434229668848
0.5351196030398853
0.5440477106656132
0.5287809396980523
0.5507065444347645
0.534236386262861
0.5551459656497238
0.5274522643882967
0.5498671274096212
0.4915995118215027
0.6615898642591682
0.920931296090701
1.0
1.0
1.0
0.5376574486335589
0.15159523188883392
0.231823286236724
0.41884794224014515
0.5003675787723486
0.5399123309983237
0.5590572142937326
0.5683146676208657
0.5803567724375898
0.5722057878324374
0.5860299255255284
0.5999456375134644
0.6267469896785526
0.6398201259651134
0.6658853178639131
0.6739360621646173
0.7203017637251516
0.7366518987834383
0.7824823106103765
0.7841560278910287
0.8290756729974635
0.8267957458967888
0.8546992561083684
0.8374603096929573
0.836541667696399
0.8039526444652256
0.7748265461200479
0.7196319015854142
0.6879770494594986
0.6490869797402914
0.6227877814612907
0.5975839891052633
0.5954584190849201
0.5833639849072532
0.5605337078635818
0.5635695051979325
0.5561488416602509
0.5649952023818379
0.5576345985788913
0.5922956707963737
0.577695611605952
0.5985928060546482
0.5887666730239224
0.6383923982151426
0.6155650752096952
0.6057392212301351
0.5633337913939493
0.5857443833817068
0.5466166507745642
0.5649846338798513
0.526725658573634
0.5078735455724603
0.5068304902344013
0.5337454263186537
0.52979122234671
0.5232201524555083
0.5120928174445709
0.5035393231732586
0.5275401908478023
0.5295695141595098
0.5207318047423823
0.5258976651879288
0.5242378543673305
0.5055837726139752
0.5251648437347658
0.6329469119064937
0.9010242046391758
1.0
1.0
0.7363973507537336
0.15847902332448394
0.16763153885617926
0.3784120134420592
0.47123475524218816
0.5277129301366383
0.5221340651695273
0.5375124078479357
0.524892796111269
0.5638269585631213
0.5785951149818176
0.5990643292803202
0.5765649472172418
0.6086643824954708
0.6354004575336085
0.6664341509411191
0.7052300241553194
0.707284440281865
0.7568334905136562
0.7622356132886735
0.7777842452740616
0.7891853234811131
0.8084036272842525
0.7745682521372537
0.7936465362211889
0.7678140538786133
0.7252344336221256
0.6499223663349367
0.6318301325607594
0.5844368392816942
0.5783250311773336
0.5226501110189069
0.5276602935153735
0.5379525118023621
0.5062543392901087
0.5028159731372494
0.49026114018258393
0.5040664814645529
0.4998158051211162
0.493180576535862
0.4927040779511242
0.5072671106935855
0.5020150304672433
0.5248984519136696
0.5024164332103593
0.5245981182600952
0.5461437253247178
0.5609128921871377
0.5202641546384943
0.5130966927899591
0.47685365693369447
0.49649079441230193
0.48274239200919433
0.4898257324704821
0.4491357778374433
0.48055659545705504
0.46382336536568525
0.4772725127551178
0.46601931814192354
0.4613095179990811
0.4482463029482696
0.47461278202459123
0.45668894814515404
0.4682832574877992
0.44815719229405165
0.45483444902808456
0.4418832038816971
0.4712808867753342
0.6570215794247527
0.9021789240615107
1.0
0.9391114895002897
0.3832616818535345
0.02540744289255432
0.2127720720157374
0.3406317901813095
0.428128907020226
0.46891298575236123
0.4890718507986536
0.46637016061518366
0.5036855467891601
0.5116731977385034
0.5388785336066604
0.5463923348695372
0.5918067663187342
0.6080609602746744
0.6471957636742438
0.6610303337323546
0.7026574810554378
0.7335020953948386
0.7541813675120619
0.7637388794155522
0.7782376747934299
0.7736119583488863
0.7428471399593757
0.7400292116259589
0.7031022345070486
0.6575993299878222
0.5944128299209487
0.5885452678312135
0.5419705599239093
0.5382374925035243
0.5015828232572794
0.5147375140154559
0.49559139321603657
0.5081286936271366
0.48589159258772374
0.5035229868112154
0.4841119503263636
0.5191995777333964
0.512059340921016
0.5254978063752288
0.5437068199004487
0.5657665570079533
0.5419470320716294
0.5030121182535282
0.49923861870436836
0.4945190236888717
0.4953918191163342
0.4659121228403066
0.4886368231009345
0.46548917013766306
0.4866529220945349
0.4703180678952001
0.5077527050954079
0.4978654596743633
0.4847124018437265
0.4633748637066958
0.4814360908641346
0.4837426671267234
0.48940549505342057
0.4843959345026108
0.7093260598313016
1.0
1.0
0.9328676686660963
0.27232747623986464
0.052108736189274384
0.3172385165117917
0.4342526904831601
0.49007229699723515
0.50071688025463
0.5226867177879425
0.5286900341990711
0.5377769765150031
0.5673800739878824
0.5719222932108189
0.6058295052613409
0.6373516092090755
0.6691460155556183
0.679896834527123
0.7461993963447411
0.7538189298872908
0.7819787032420166
0.7916714798224023
0.8082899876647247
0.7751906960092662
0.7787076316272113
0.7392212733115897
0.7146375624407332
0.6440310124214029
0.6197958706733022
0.5710624786501153
0.552216831055866
0.5343359308675091
0.518387818586622
0.5078019791997287
0.5173839772082819
0.521856523792614
0.50708528746514
0.5021449230385898
0.5039591233591274
0.5252082540891952
0.5239565143312491
0.5499756968693955
0.548346774593957
0.5978779391312792
0.5555055860695569
0.5278235467698956
0.4901169579959793
0.5242735049908819
0.5131101032530976
0.5052667895819465
0.47946802127378996
0.4777060522826293
0.46668772922386453
0.49458559118505246
0.47609404385604603
0.4950442682612044
0.5001323328340183
0.5074946078499569
0.48757050262799684
0.46517863609553645
0.47442625005587613
0.4550153028001073
0.5531025640621738
0.819816982769831
1.0
1.0
0.543511536401768
0.042539480647213426
0.20820806449189805
0.37663897725753603
0.4831547182013705
0.4884356037081776
0.5253255034522264
0.5040433807366331
0.5458542779964968
0.5514423525961402
0.579259078096029
0.5859915649922174
0.6103397703499502
0.6371522192266893
0.6845787977449286
0.7174045360077407
0.7496790937618092
0.760502576850329
0.7838765926803346
0.7885202546566081
0.7806196947553727
0.7770229592895206
0.7001370627087293
0.6900660834920685
0.6288265751338977
0.5942319428352099
0.549281278162756
0.5387534218563143
0.4819107601848153
0.5034855511653864
0.49720500984658456
0.5094192006140565
0.48927265408171133
0.5148041966137343
0.5125153339775153
0.5009654135098882
0.503144632317787
0.5165189101133689
0.5143878547850872
0.5554536900796322
0.5546886090478551
0.5352427431049533
0.5438829091408731
0.5031752521820111
0.4899867804440137
0.5129197495603375
0.4838498647785226
0.4779422505572547
0.47049375558778256
0.45414488034455003
0.46405346997654
0.4548675164748879
0.4700404940841555
0.449644550460361
0.47678910262025126
0.47034562828799
0.4763084324863008
0.4620205618007981
0.46830690865267766
0.5445945207144349
0.7934476551971897
0.9836426780398557
0.9696925082678762
0.534541577001665
0.08431090651568782
0.2034942250015706
0.3655381228090534
0.44246197919090813
0.47878539008962295
0.47651349905658513
0.49685740564466074
0.5330709823232562
0.5229985075783087
0.5476930005795959
0.5719468706477154
0.6020470883532237
0.6183941398590548
0.6782191474199717
0.7019956979312549
0.7105847418850748
0.6979597270256243
0.7589046712974999
0.7313559343626699
0.7843614931782634
0.7429303862593546
0.7373591802377816
0.7123321620325296
0.6636394900791489
0.6194522069942967
0.5794665602789524
0.5446813786076877
0.536713088094451
0.5104849109657048
0.5135439503451587
0.5078024026456821
0.4910884031272656
0.4795644058153513
0.4905337035366381
0.4957794934046377
0.4832814614691644
0.49760631202236716
0.5008044176004811
0.497354152513925
0.5060563663508578
0.5410869150196638
0.5310054657874748
0.571986022152583
0.5359306089479807
0.5197588548080981
0.5155685248042604
0.5330007639148183
0.496480225299162
0.5095403127571656
0.49347059741964383
0.5014427881074695
0.49983695890473384
0.4915576804395637
0.49755379732190236
0.4907558658155229
0.5009864894403773
0.49369023836537523
0.5236229303404558
0.47357591226747725
0.4960573764168399
0.6842161564827556
0.9897369169788494
1.0
0.8676559417534502
0.2167163484783822
0.14898642538554036
0.36627984694783555
0.4653454607705254
0.4773910674024514
0.5229736326537495
0.5312364856218292
0.5378949123671657
0.5568266750426049
0.5986006519885847
0.6094619551097554
0.6294345528396252
0.6777986391878439
0.6998672145336386
0.7358739600445825
0.7713882858480967
0.7977359974301432
0.802776558883702
0.8297010967105425
0.7883807548104824
0.7901311668817741
0.7054160440473065
0.7236427711026054
0.6572061956716708
0.608812513670964
0.5800104399773218
0.5595757163081474
0.5342393824596929
0.5340432862345901
0.5216067553692427
0.5225985772583024
0.5064041368652712
0.5302105918283058
0.5027186094104306
0.5302513439419148
0.49196405081945854
0.5553746894966749
0.5472293139462432
0.5630906468138375
0.5782891994670825
0.56924828496494
0.5378177868779022
0.5576181340976046
0.5379033997271215
0.5270760052308058
0.49245167770835685
0.4900184766188711
0.5043173528461314
0.46894519742908225
0.5222395839234774
0.48886588930544717
0.5142447044706995
0.47151922361904514
0.4886103280354511
0.4845287045945832
0.521902305710505
0.48881930455229894
0.49749733656661277
0.5263804661976463
0.7596954766452069
1.0
1.0
0.9331582568074225
0.28913360745782596
0.11569415812224934
0.31710130588636387
0.4215349729590419
0.47216117537360447
0.4984490497807858
0.5166146032361894
0.49918679315900816
0.5134585065360125
0.5414375307377715
0.5335548245737411
0.6111628966907076
0.6581870674042136
0.6350423680082166
0.6827064014847867
0.7669084313625296
0.7459675024378554
0.7790894104385924
0.814042735749242
0.8189658658663144
0.7918524052721068
0.7953422642857607
0.7910378595468651
0.7507350164197286
0.700057878507401
0.6413891532194277
0.5877718935127917
0.5676497272760661
0.560848281502879
0.5240719637277976
0.5483146253950497
0.49583214948403925
0.5284141692898051
0.49517772812732386
0.5118042861663498
0.49893093406414335
0.5194067983938766
0.5064422858697026
0.5112403697049495
0.5531189443078935
0.548645080172383
0.5504743102330074
0.5955694822888041
0.550857085375518
0.5331442396729805
0.5193748011682866
0.5348013308237937
0.5356913830391465
0.502520849517543
0.4866833485216583
0.47300009451783975
0.46980484165382047
0.5071674363557563
0.5011319535416389
0.48108425277967204
0.489568343046647
0.4873960130997209
0.4777560817777082
0.4703819799596996
0.4879213274656298
0.45014451105637293
0.4929867408997299
0.6640922847105566
0.9739173273198585
1.0
0.970597152293298
0.2503302153221203
0.067808397695332
0.2619031881696546
0.4031460702417003
0.4590589568724681
0.49473915630249604
0.48006000986292374
0.4856103421238715
0.4889215151168161
0.5307477460237144
0.5490272500960225
0.5546419585879976
0.5567744542260918
0.6056917461457896
0.635282501353607
0.6790584757146092
0.7120570677321154
0.7328058264170326
0.7668768707458049
0.745226582348386
0.7953476308963305
0.7711179997511721
0.7377980510851847
0.7139346479843629
0.7163384080853802
0.6244394802435898
0.5720902506084258
0.5019639743792882
0.4905572163321965
0.455331610514916
0.467170702126371
0.4367696325141755
0.4118719442525414
0.39091072501643137
0.4220322274063619
0.43264748379595197
0.4303902553543752
0.41471550327039636
0.3979103419371436
0.41412544840349375
0.41018386160992204
0.4343869756349215
0.44824966711392467
0.48740942510543295
0.4659303701508433
0.47101273353068107
0.43677110408013886
0.4358806209666339
0.40429747438582553
0.4452310525951531
0.40578508592459545
0.412840533223705
0.3638440037207679
0.3736153988068963
0.3812443645582097
0.36831798845091146
0.39241083900146967
0.4143547326516016
0.391022272128827
0.3784131600465569
0.35785556899727133
0.3816122081526074
0.41300076846866673
0.35082145750528343
0.36954712954127167
0.5236652038164926
0.8423224426998537
0.9970863394054555
0.9249396997286021
0.3728197027758057
0.02745402088121862
0.10549259432153732
0.25922968209865277
0.33364890325611063
0.40791175350174197
0.4217911761042113
0.43601793045041715
0.4180704295275631
0.4281146947575286
0.43475332249751275
0.49687976497458675
0.5116482655348145
0.5260169591324264
0.5027864882379491
0.5412731705069718
0.6028786820616163
0.6369820700922351
0.6395659865844281
0.6628256740886671
0.7251018497800764
0.7134466904204038
0.7058056190461102
0.7152561645209897
0.7136417820263594
0.6388551559122555
0.6571857852997801
0.6112146186883576
0.5510067752473973
0.4832841768147282
0.49618081671232045
0.45114627299658305
0.4369241736834605
0.4205071814268395
0.43886137263840075
0.4360744713247187
0.45227773992647047
0.38518884799075276
0.4347214828335721
0.47219845183818004
0.46377314428872507
0.44767783436605246
0.4103206746079735
0.4211752085121819
0.4718254603176513
0.48564285827970516
0.48841562920415116
0.46430538617286354
0.45617040372010703
0.45080340486907255
0.43210394041738925
0.43763358090307225
0.4218257898571471
0.41266499005622564
0.4045690414634874
0.43486315888296484
0.400932624009979
0.4352336569481441
0.4162719549466349
0.43624825643888077
0.43987631110997605
0.4208759057239648
0.39129904495113177
0.4467743199087632
0.4071466910123337
0.38909126914353875
0.5380888654824619
0.8549138714438488
1.0
0.8817169517899043
0.30544291752958785
0.04275368175985017
0.24228719044004904
0.37337743527365747
0.43182237039045546
0.43219339586776034
0.46762750394627234
0.4597290088314191
0.48269913780726637
0.45831675082589546
0.49543336938539884
0.49157641643418204
0.5498213764680111
0.5366875863051557
0.6068171550184456
0.5988647122498285
0.6791851045035514
0.6720595989441174
0.7080061220043244
0.7260461246210128
0.7507325139484087
0.7474471306014265
0.7186877515292884
0.7072752050285842
0.6484387270581984
0.606895962138516
0.5651850166336414
0.5320881346823478
0.4993993343762404
0.4864238494279565
0.478426090030733
0.47202068083743676
0.4443573760568045
0.46825828889487353
0.4546488402938976
0.480867627404938
0.44828481188689073
0.4425378170080402
0.4423128419212802
0.4896331795487471
0.4684648862532118
0.5011057140707738
0.49973208899706156
0.5325631441064327
0.5102553992716266
0.49984411422776676
0.4817495492512297
0.4712204672154384
0.47518342774657274
0.48544896224235157
0.4426572018352716
0.45787957489642306
0.46790038535507306
0.4293656223480264
0.4744821046040769
0.4539080675003092
0.4553334581582054
0.4486471531544673
0.4639163276961531
0.48648881301609387
0.5020045882225124
0.4504785943564776
0.47030353426666976
0.44265190734108417
0.5527813864852466
0.8142038020830882
1.0
1.0
0.7153308211230117
0.15046080289784536
0.18285635184422394
0.28595891836979065
0.425947825376789
0.45589356845412626
0.4764088286182314
0.5284537831540302
0.5133280622908466
0.5278090900498957
0.5482798941611694
0.5806444314722856
0.5399086770396655
0.5940805344013198
0.5993277195149765
0.6613103311779286
0.6808419534576795
0.704376190072377
0.7355560814454363
0.7623807010682823
0.7659489062872481
0.8308604559726118
0.7705824468800864
0.7626915962686718
0.7216376368283683
0.709885760437324
0.6479409476027355
0.6188819230637035
0.5749288753825441
0.5409117731567363
0.4817050053070032
0.5270951333431084
0.5305255893009239
0.4898884921784525
0.45840143289882124
0.44121534987972166
0.4677972655329203
0.4534319329119641
0.45953721147414817
0.4708675844918705
0.4760301224207983
0.49949522346601916
0.5329716716651555
0.5303860734867663
0.5356868050004228
0.4967677597451459
0.5056836683287035
0.46166080713770336
0.46599681611910715
0.44241747537051046
0.4402976339918848
0.4240871784945113
0.4618385888123198
0.44759299705364697
0.44838762447293484
0.46987484432471704
0.43282589492098883
0.4269380656919918
0.4239136423306375
0.4297439770814324
0.4320217886254726
0.4891453227180073
0.41717960296868134
0.4458763365141533
0.6578369544410536
1.0
1.0
1.0
0.46445472361519996
0.0921765744628992
0.20226995290911534
0.40506711740997314
0.4450715178954886
0.4641530102480537
0.47154981734420376
0.4828742920669738
0.5167787755961875
0.5491223560601779
0.5484788201002482
0.5713140297650037
0.611596856761554
0.638257173568274
0.665056870611606
0.7055826536670194
0.7250823320873498
0.7549628738517639
0.8019912291169122
0.8207795786079304
0.8275189661683804
0.8280517862726631
0.7994218315743649
0.7522831586374883
0.700883488998506
0.6544980916416945
0.6163912777188113
0.5540733224817995
0.530984880267676
0.50387215184697
0.56039380255623
0.5108280820333853
0.48808127151144093
0.47201359709623414
0.4665151811125977
0.4551681441903794
0.5315205090965339
0.4966462269969324
0.51634858607683
0.5368451695451608
0.5876825375229576
0.6015533651545464
0.5286997729006331
0.5052462246188683
0.4938582706146174
0.5222262612361048
0.4690396204842696
0.4747138650999794
0.4533151055213903
0.45731361336311077
0.44671749383941395
0.5025361904878085
0.4388865932859998
0.4693347021913564
0.4539758630102118
0.4834011431897653
0.46046818031393977
0.4798612904026521
0.46667248305139725
0.4010489883626098
0.49908753997548005
0.8700104475936751
1.0
1.0
1.0
0.2321095166198845
0.1266936273180697
0.3549884329345286
0.49017311396878105
0.5049121419673155
0.5252602475304726
0.5164354148537801
0.5437661012262351
0.5310549135629417
0.5952248995776174
0.6002606143871041
0.6501752401917937
0.6442447049242386
0.7175733595014171
0.7283092761831316
0.7890963931763151
0.8145936205207557
0.8565183824452707
0.8569203449151672
0.8902678409308658
0.8885423737137914
0.8715858791684188
0.8746915645053344
0.8217882025707752
0.7702135764631878
0.6834980823456714
0.660836476895906
0.6130952186995311
0.6023626496671787
0.5545225536790787
0.5725388626940909
0.5595239671055771
0.558096125266256
0.5547536677079808
0.5954316743524786
0.5462422967923283
0.5692238790671356
0.5786667686927772
0.6368484976264961
0.6173485423392329
0.6645802439248456
0.6301551163784298
0.6179354489370926
0.5798131961783659
0.5739804070417114
0.5499229032312678
0.563915990805678
0.5179191696435648
0.5129684539329231
0.5159626550655128
0.558485131797428
0.5690237632736157
0.5517619171868552
0.5179136013708078
0.5401301887889013
0.5543989667774089
0.5285261974041207
0.5560256700548833
0.5386298317941397
0.5406611187468477
0.65651736949129
1.0
1.0
1.0
1.0
0.24428765806293712
0.17247846895298397
0.452960660460743
0.508588431940174
0.556659624994151
0.5508039204275508
0.5910199775972736
0.5594909679969308
0.5910728471593056
0.6289179275011116
0.6422237455234322
0.671099247051974
0.68633828533515
0.7284367252711561
0.7651096933902523
0.8111169092740838
0.8180474935968096
0.8689609018324551
0.8767134769706025
0.8964281180496212
0.8682319125996749
0.9084472018270692
0.8646958585454504
0.8323973961625883
0.7593553780574256
0.7209511564147214
0.6310717176855531
0.6252421486592696
0.5810671139447374
0.5963521008764686
0.5571747990368996
0.5076566380986723
0.5158090026089496
0.5394234117428172
0.5149969607078138
0.488772491836108
0.5039039168454145
0.45565172548261373
0.5012585763292621
0.5104497485228752
0.5361813100845273
0.5259416048119465
0.5514579742231772
0.5134842537031233
0.5043200600005799
0.48851930271671495
0.4847912475515903
0.41869563357609285
0.5067403963139804
0.4112623796136371
0.4291373115891157
0.4175646299671751
0.434666319117191
0.4266961154974573
0.41873065099595574
0.3828432159283832
0.42941914957690475
0.41005454065004915
0.4447528990139329
0.42396354841455397
0.3788509293525987
0.385473160535912
0.5058314824026416
0.868565745268811
1.0
1.0
0.78851687409113
0.038020664594316765
0.0
0.2644265860858731
0.35700196834229214
0.425014429951441
0.3939851760351204
0.41122517423102256
0.4352398620684723
0.48180097176063563
0.4618621641049354
0.47897192549316453
0.49579234440342745
0.5394697181990653
0.5795883269052291
0.6219261700595988
0.6427648225428938
0.6848122563466762
0.71232586681189
0.7100943760632227
0.7498635424906457
0.7322583011518904
0.7234659383138439
0.6848076696057196
0.669461727990366
0.6074736463473001
0.572282780411127
0.48884508216903677
0.45588753816289546
0.4105932776757631
0.4127878160123576
0.3686377552709886
0.3784845760027055
0.3506505980780311
0.3709306707099788
0.355525581988697
0.376960153641666
0.34671900094919905
0.3548789353441414
0.36203300769917235
0.3855788964162774
0.37461336973870096
0.39346019555317147
0.4220422007510728
0.42147189114596995
0.39833192444737975
0.36774543710523677
0.35556941015050364
0.34944404052631023
0.3672239790024765
0.34141592010180266
0.3117185846184488
0.28948750092606573
0.3296202367667473
0.3103229330901137
0.3403146274474366
0.31785361446811616
0.3327062763339956
0.31210129265553266
0.3479484299935215
0.3037592154102321
0.2899238825167104
0.336571484948033
0.7592562348081475
1.0
0.9303200189772884
0.16073185463491577
0.0
0.10259560527441355
0.24852980151581777
0.3317219525165374
0.3340475490085866
0.3679391363741872
0.3574494668165633
0.4086770150607806
0.4093625164222824
0.44941140737159735
0.4428154617158334
0.5093553833341445
0.5166096113140874
0.5844844184145244
0.6122305583491139
0.6645229069091652
0.6535136330041089
0.6939452135519024
0.6884805454565865
0.6838424205520645
0.6529678448268583
0.6364557308991274
0.585967259313302
0.5233344371810259
0.48227975855553035
0.44767895193161156
0.40849292862584463
0.3882635939237836
0.40989084574239437
0.39713988315944443
0.40462064796411756
0.39612640530574267
0.40547314860687445
0.3878552432464552
0.4132437622908108
0.4105478586508046
0.4263715548900941
0.42026683741430804
0.4561125539171327
0.4584470656753835
0.49020180094235555
0.4516365353565453
0.4791182455543067
0.447213540780774
0.48459705386427626
0.4382133053872887
0.42220273053861207
0.5006715683962919
0.5582820902842888
0.6331115942070896
0.9059364254146001
1.0
1.0
1.0
1.0
1.0
1.0
1.0
1.0
0.4092321034420349
0.20828415467615247
0.22554402020176156
0.15027126155090023
0.13497904094376673
0.09232970089248864
0.09790290216473112
0.06186043906226333
0.07318431348933627
0.05547293027055069
0.05451535711443478
0.0393249860960708
0.060821124933513195
0.049336914426035786
0.058570452131992565
0.06909183061950248
0.12024107404981414
0.15720436618571115
0.19685084729654245
0.23370870930339974
0.2584906424383762
0.30244141263238244
0.30287596152627094
0.3502744640027534
0.34225503070430163
0.34628580363829486
0.3340963202712385
0.3414470917836021
0.3318064053858793
0.3548420357932991
0.35110650383969855
0.376580462263545
0.3463792573324184
0.3745729905706122
0.3754627811352639
0.3746995899251681
0.3668378093156752
0.3869510247352649
0.3936170641862943
0.4109981083955455
0.43203131324578764
0.3911858789042767
0.40821166930699226
0.4448347904134147
0.4374517908680029
0.4594297319776509
0.4879006610671789
0.4743479791025077
0.4878219818364453
0.44801652140737147
0.47501940394171427
0.43315425740245717
0.444646723838125
0.4268980248487657
0.43420534381508774
0.41239101482511203
0.4307207409084321
0.4242100587910297
0.439455909162327
0.4453556494540104
0.45785886286337646
0.4341103365381048
0.46189234797727946
0.4529994540108313
0.4397919795766537
0.4950467558167908
0.7268446863724181
1.0
1.0
0.8247568584029317
0.22467021158024375
0.06127571741133675
0.28710211102559186
0.42291657602675564
0.4627156131630924
0.4784698539343582
0.4685140025936863
0.5219164404422325
0.5157915617612143
0.5475958529283879
0.5615492091480816
0.5933295614725371
0.6172015434069997
0.6548266936962541
0.682735912947852
0.7149994909760299
0.7353964454816845
0.7714426863461892
0.7608907871128717
0.7912780739860483
0.7973486933442755
0.7886965147614143
0.7616231590426573
0.7214932107219159
0.6851221928709681
0.6257718382528662
0.591144040056052
0.5542783217263254
0.5436006702281981
0.5325348654514761
0.5398713228720667
0.49976915934549115
0.5114619918878429
0.5000397156996749
0.5307798703546518
0.5108218089060876
0.5380867586863232
0.5267645807172683
0.559514203743231
0.5590375996386976
0.5973400632099866
0.5860762825507824
0.5777655737063874
0.5527130434601579
0.5369791872352437
0.5338200446624554
0.5409209918189941
0.5253364185868932
0.5056560431925966
0.5181719511422884
0.5083465263481183
0.5051924209426013
0.4982728422352888
0.4966940096285695
0.4924393529485009
0.5119705604862926
0.5097832871962635
0.5303825798835062
0.4881583942050467
0.4812783279772388
0.5947423013951953
0.8735294455363581
1.0
1.0
0.6598773370152956
0.17367925355917993
0.1421915688265052
0.3474662225890962
0.446167054724652
0.4932119999957685
0.5092293278707436
0.5290479453757412
0.554380923721381
0.5752623571508109
0.5719220980157342
0.5959203823460812
0.6054153496491053
0.6228378898867345
0.6447636691673412
0.6738191552071499
0.7219361932566983
0.746090425167329
0.7723611984954989
0.7439457355202993
0.7852224447117966
0.7770322205141332
0.7885466846751076
0.7629458558113644
0.7612636394277493
0.7206227963574348
0.6936022730043053
0.6323159826709347
0.632712529395032
0.5702630995209037
0.5522639929158768
0.5517490841008305
0.5448928650107472
0.525178400899488
0.535155712075557
0.5364009281175453
0.5116596871293314
0.5156356935552188
0.5039048064962798
0.5183162896713173
0.5276308713317052
0.548435912207575
0.5471026188749597
0.6099086598687957
0.5652759673522151
0.5991131819358011
0.5539706984800856
0.5658107446642544
0.5338957818836696
0.561939058633062
0.507887319345866
0.5056294445133092
0.4944002902897158
0.5220681023403848
0.5095035830043381
0.5130243963526792
0.49191727937890095
0.5173272524831306
0.5100008194668482
0.49718999118370694
0.5233396468380646
0.5229585722438482
0.5101834028451464
0.5021826142211037
0.6963511216774979
0.9592237428275145
1.0
1.0
0.4394310346576765
0.07132160109203145
0.2900093760470903
0.3977782742145199
0.5202137866996981
0.4967549744251136
0.5364341333203319
0.5349404922990386
0.5779542037117615
0.5685046921484146
0.587519257845622
0.6019398195348854
0.6241149783339032
0.6551912555216258
0.7071226740064811
0.7248936425372288
0.7395685600832989
0.7864919604470859
0.8120278307086327
0.8031930379393245
0.8042364813407852
0.8091145568364542
0.7939237243814435
0.8154956012013457
0.7730384864113093
0.7344541842122851
0.705322032470893
0.7012161534378311
0.6810234879017824
0.6280695803171478
0.48544906383305875
0.5191887390593972
0.4987046282936321
0.5101668700213735
0.5093102447028921
0.5271550868978863
0.5387061671889992
0.5327188194151922
0.5272261373676337
0.5236006224709836
0.5422324444649315
0.5459724824402444
0.5649632082649878
0.5754090850574335
0.5988227129722935
0.6056187294623304
0.6010933972483561
0.5615601503121648
0.6019291783824776
0.5532881442789735
0.5496628977650678
0.545570999884864
0.5432488614642319
0.5202109084662585
0.546846664253596
0.5049310995642242
0.5638914639514769
0.5305523105077002
0.519331264992693
0.5179611471250912
0.5342016817386318
0.5029210561378642
0.5105548756895575
0.5109325751639504
0.5233281585460529
0.4714940547953427
0.5480511216368419
0.7851405375546996
1.0
1.0
0.8814657610124254
0.3213110243359509
0.08762632143153155
0.3126957539792283
0.43686671376490516
0.5296176785608573
0.5471712499932938
0.5504434017138073
0.5335997096221228
0.5574820372857268
0.5583646819339183
0.5911636696338162
0.6089213602645583
0.6584682018332215
0.6520397047789556
0.6947907897040151
0.7019704008517318
0.743207043343044
0.7634437907980359
0.8087410500396952
0.8274194651975751
0.8406134058902918
0.8296956016215022
0.8266170231759264
0.8196028306951554
0.7989510658099265
0.7274289742908895
0.6564373104770642
0.6293768428084846
0.6140721070065632
0.6052244290442381
0.5673471451637655
0.5702153426682177
0.5396329342818649
0.5628964170756455
0.5139352181925758
0.5416197841471041
0.521762243795789
0.5442847532235594
0.5175464528460373
0.5562826316233755
0.5423630148744543
0.5826925710079408
0.5821750350700292
0.5934358061155828
0.607569926575851
0.6057040691900502
0.5380114470420921
0.5483623240030563
0.5791487797220438
0.5605653174053967
0.5106611203164195
0.4752879005344869
0.5175089246017047
0.504953831553924
0.5206698952089288
0.5167231301834941
0.5189714297015915
0.50763813990583
0.534486376869569
0.5131013645847422
0.5405146527258917
0.5098282069029563
0.4960789813901248
0.528367558208757
0.7603531111926607
0.9926484693764568
1.0
1.0
0.4630796384629348
0.07837199189365877
0.27759954417662347
0.4034943260991565
0.5032867332807978
0.5340325571508026
0.5402603247960951
0.5630242446471312
0.5775709362640116
0.6190783038459985
0.570096195012818
0.5758289307987032
0.6389916194893259
0.6974497568586953
0.6771097161556183
0.713292751541679
0.7606887056193055
0.8055881813769995
0.7934233509695334
0.783800308643621
0.8167377399452711
0.8431304248823628
0.7784641455107268
0.821057069019479
0.7798602326744966
0.7552510129455
0.7045802798866433
0.6682289926765026
0.6411655201924594
0.5881108019508183
0.5772493036717846
0.531295703429525
0.5452023861663766
0.5450643604759214
0.5225928221423009
0.5154502778889939
0.5461458561935262
0.5184595075011025
0.552040484594477
0.5197376355986879
0.5484464217354509
0.565197540243027
0.5652470396286609
0.5359542551308076
0.6034856005065693
0.581789455544252
0.6071975153368737
0.5848526528742177
0.5622675459072516
0.5235587512534243
0.5447992536612978
0.5418147330906
0.5355433311262343
0.5412274209846931
0.507410890410108
0.5320726860717887
0.5442916911473095
0.5127931435889733
0.5039248647270804
0.49752852843502193
0.5079173550160665
0.5231670085186322
0.5026746699813436
0.5237904276414044
0.5169967325186366
0.47517241844005637
0.5710291165530664
0.8296972428190141
1.0
1.0
0.8601457463082376
0.3608259839882607
0.09568635868439168
0.2982457156989378
0.4148319704807154
0.5084602207884213
0.5048492842397243
0.5439518748114716
0.5143156488624503
0.5806941624304186
0.5874409737528179
0.5976706402637453
0.6349357495706786
0.6649975740243741
0.6578569468342435
0.6770560455879051
0.7337033003250217
0.7507883708688707
0.7870729113228172
0.8070760173330802
0.8319818671402001
0.7780522758615067
0.8341884368083903
0.8084823722434502
0.8000678419484378
0.7828655762355861
0.7186702980682446
0.647385218732454
0.6422387855534847
0.5816760119295824
0.5819107042372385
0.5728508442484147
0.5402786679633891
0.563841010394702
0.5680337926334961
0.5808097752480404
0.5271361312253624
0.5121971421027822
0.5395778163775061
0.556230098004513
0.5477525411395874
0.4972300086461895
0.5229228760691987
0.5532537797283569
0.556492053203135
0.6128315784804438
0.5889635815916594
0.5790549269019751
0.5423472602963383
0.546127020465991
0.5536549966238739
0.5562468031155742
0.5323739506206692
0.5469678751161946
0.4934274320473854
0.49445660293592636
0.5247356227683523
0.5275929068408374
0.5384718920303665
0.5384154101603416
0.5252953647248374
0.5006614978461308
0.4816849785931871
0.49270252887530297
0.4971127848458076
0.5038606121950917
0.6155144661037778
0.8952593156516659
1.0
1.0
0.6613900944919882
0.1559666731706073
0.1603605987928179
0.3322980367480258
0.4627929769221046
0.4937218446122548
0.5253327875875499
0.5414145912644206
0.5626861778474351
0.5565248893664345
0.5525037247515632
0.595082747139116
0.6184318600905936
0.6290882192336807
0.6290718265068473
0.6465636535527253
0.6919976907112508
0.7154715010970604
0.7471613346930829
0.7711302863138998
0.7820979782726176
0.7962994352168742
0.7734035968911185
0.806525337632752
0.7848457676172454
0.7430639335283719
0.7253572822651588
0.7232399624408246
0.61552952298159
0.5863864999456023
0.5839795862200223
0.5553055145921915
0.5164955831830074
0.5416589286951807
0.5274801272920929
0.5240175838394479
0.5267786559321296
0.5065516435323265
0.5058476327587216
0.5228531846648429
0.5253278307328436
0.5240187780983813
0.5283731983921358
0.5251703059646131
0.5442738765208417
0.569625625493019
0.5968324425097492
0.6112678697134392
0.5960444359266943
0.4950907405490014
0.5022008641116315
0.49180985150034956
0.5122995766200324
0.47833349521666835
0.5024147145155525
0.4873669387023039
0.5042459337374552
0.4844832195473323
0.5045931433897952
0.48534233483904077
0.4708591164219684
0.48254093329294684
0.4785635590972016
0.4717940251586833
0.480745899953315
0.44541848976089093
0.541738341235398
0.8055893141170231
1.0
1.0
0.6241422280362011
0.12347599244934493
0.12425656308856885
0.3889206358053609
0.42568086661211135
0.4925513688623904
0.5026039034399529
0.5194682414784846
0.515378541018899
0.5518270594499726
0.5425909793594725
0.5710786355658414
0.5887641669320328
0.6330827428166843
0.6428125177037176
0.6702685832529544
0.7023089601359155
0.7219621319767187
0.7566812264272984
0.7584763860715114
0.7749713649797447
0.7477722733064118
0.77182924254744
0.7334338147246279
0.6795798562008046
0.6613392419699926
0.6270539987024218
0.5374264899332675
0.511259043829851
0.5006285646693007
0.5203278035952387
0.49346684773674926
0.49517710171078433
0.5039506101127953
0.5069026445867255
0.4856877799362809
0.48362713285896647
0.4812724795583083
0.5190502986498233
0.5304194827187325
0.5457237549515483
0.5410041568965194
0.5780369398462465
0.5783468711345126
0.538083444351307
0.4984965579172759
0.4853474272962631
0.4991487594582155
0.4775177041772503
0.4955388718047641
0.48368279652880297
0.4630464074070038
0.45748223667329074
0.476287077223373
0.4832522874163569
0.4966117438215477
0.4558936189208852
0.4932950751141802
0.5066694044438395
0.4714817279372873
0.42737433773145794
0.5337618282471105
0.8248420318450049
1.0
0.9439553733618993
0.5152816649570233
0.04276244876185196
0.19266316058704974
0.3754711107871188
0.4729911667354999
0.510599016865388
0.49828275661828164
0.5117587637571915
0.49439342150954513
0.5319332546081134
0.5525213375479646
0.5504001340510511
0.5608716281797244
0.6106402694523754
0.6342313286066408
0.6705336654133764
0.6988317900520606
0.7168289302634954
0.7276257067021656
0.7423157132976723
0.7470780389478404
0.7476555756632226
0.7159022054345815
0.6959625993257622
0.6579908652909368
0.5895135038278316
0.5799560268900749
0.5360383680595522
0.48578694162179464
0.49140781495286606
0.48710700514756516
0.47679026447932077
0.4783518656320494
0.4515326230145892
0.4728884095107498
0.47761268306584626
0.5057908487597091
0.47521788288193595
0.504513289680916
0.5185041198021065
0.49862693445320094
0.4811415087496405
0.5418428150107258
0.5146091831824987
0.5167083001832531
0.472717990734078
0.5084454899304793
0.4611195242149188
0.44724136871981807
0.4292703958282604
0.43371525710129105
0.43160130942009217
0.4527744199860024
0.4474539173247637
0.46764523950507486
0.4471115225109303
0.4481366171718145
0.45228729160129894
0.4631768159236797
0.43839979213971036
0.4632174122675437
0.7468621719681079
0.9635516075289268
0.9548747691481505
0.6463742757716006
0.1142490877395654
0.11195355240602005
0.3318424585993996
0.4223947276493526
0.4851794071948821
0.44971527049669674
0.5033950193833209
0.5086316665577619
0.4902609946415912
0.49885118998832845
0.5702829002401931
0.563313009064224
0.6052568627412352
0.6281805528716081
0.6571293143256127
0.7041125027926852
0.7165297144051468
0.7086418045259031
0.7086732554450401
0.7318007003994422
0.6965657483000853
0.6991214999458862
0.6271803041534134
0.6214888490599371
0.5823887971435671
0.5435606164104501
0.5145422201486591
0.45070812819488
0.4368874039465081
0.4606199600297889
0.45325998684635305
0.4651397823368355
0.4632766625454699
0.4583301029753323
0.4390611622337026
0.4747803672298535
0.4966137363582844
0.48671709798801677
0.4806499995241523
0.5219882914086079
0.522550784180629
0.5053428990586262
0.4642199592082357
0.46911991279452997
0.4884795068602258
0.41260622118623624
0.4425689964264176
0.44917201893788833
0.4500280862313186
0.4135572474499778
0.4453822665711013
0.4231474510084968
0.4436963640712136
0.44183886577206916
0.44332372608993414
0.4407722449497887
0.4437884546440148
0.4160613408933469
0.5530189783088786
0.867782228845892
1.0
0.8905430869547629
0.2706210161679047
0.0
0.22153321124971326
0.3500419805701783
0.4310082986982196
0.42084277695360794
0.4312976921583397
0.4772355759869713
0.5006925521129284
0.5039166319600615
0.5322345776958893
0.5618140496434904
0.5881301281203511
0.638544299117858
0.6166875299835489
0.6910458998554192
0.7063952908236989
0.7300706906592959
0.7522145841827552
0.7506081290683368
0.7258773207069856
0.7363057838957519
0.6816935837010406
0.6598840667911443
0.600091714346393
0.5679281046458386
0.5347599715646052
0.5204025454524676
0.48627316931192854
0.4741245431362736
0.46519117881438304
0.44126456714611734
0.4707908222013978
0.4447020293716588
0.45978840205504634
0.457096028361875
0.4718341729854331
0.4578494064534505
0.4920661296469878
0.5137944113775501
0.5386985267782411
0.5142432726296489
0.5124729315676246
0.47892528587543176
0.4892196526688114
0.48630932280260686
0.4707241703529748
0.43506261835110854
0.4590421724473547
0.4515270308301025
0.4646249099899825
0.4395924534774355
0.43475372183220895
0.42287115649771945
0.4278942832072555
0.4377623036954783
0.4410130786848166
0.44358820893569256
0.41862984655221214
0.4713391455913962
0.6634245135345405
0.9788329930152055
0.9964983313376312
0.6881342127881419
0.09993824012036638
0.046846701784354926
0.2615115480870197
0.3957048463739688
0.4223915368093312
0.4593898668726276
0.4684254470687684
0.470402396812917
0.4939815894682327
0.5029306156396424
0.5430450226439774
0.5604537504839568
0.5765626420140899
0.6012620807188563
0.6305479939820261
0.6748704992064679
0.7174560739752407
0.7177301048791838
0.7283830480505245
0.7258771630549087
0.7530362830211234
0.731872896537751
0.7092662948706098
0.6700266403902594
0.6460654961939797
0.5846360267693973
0.5845499372780049
0.5175633914358
0.4795111807410645
0.4559924586676415
0.48253104433631133
0.46109262760168657
0.466992104030615
0.46836603624309686
0.43868407729448505
0.4304068479512697
0.4414121761711686
0.45643752495887363
0.48259880889637136
0.44983421985667266
0.4789243287492603
0.5152132657591342
0.5214503058544824
0.5219010181345738
0.4964947700449221
0.47719154180712653
0.4601109363256728
0.4533257343445129
0.40361503801192045
0.4241765009377801
0.4270822558725634
0.4373387378902954
0.4126111741688591
0.43570747641887203
0.41132104509837203
0.4142244735893107
0.4139817880580405
0.42410747677656435
0.4199953138066844
0.41740479914322914
0.4170489049404451
0.39789703920149294
0.5000580023194883
0.7582953974778383
0.9907398801935084
0.9709428778615494
0.6266015527356742
0.05906694439213487
0.06086601600623567
0.2924614098573176
0.37944612026091445
0.41214167698081966
0.47225557600404217
0.4487927877578436
0.4820212890706849
0.462946660459618
0.5153639785271862
0.5310443102565519
0.5374833677416531
0.5445234493626296
0.6185046526708006
0.5898941565046897
0.6648806057869406
0.6697855845285138
0.677169726897452
0.6898127531408229
0.7108017541475544
0.7138816792757042
0.7277727443886788
0.7383663631230387
0.7046981867560443
0.666679708022636
0.6486203840797051
0.5875631638314518
0.5371701295332333
0.5391130886927468
0.513908273484392
0.5046788990571413
0.47201549538112697
0.46246002779137374
0.44975160510492274
0.4685826680423843
0.44542564631570614
0.4399572821420126
0.44765774208770653
0.4460725528313866
0.4224318010873188
0.46998705247491623
0.45985030869541327
0.49918030497040045
0.5019831185576862
0.5944892764417855
0.6672965653608812
0.7510182891531416
0.8373254974733195
1.0
1.0
1.0
1.0
1.0
1.0
1.0
0.6165572173672148
0.22301164982241603
0.06042131066362959
0.03893904317231165
0.049472100020775046
0.12900060145957157
0.19267708345424817
0.18501037030036369
0.21304645384754237
0.20142142903035937
0.20717519046769356
0.19581094748717803
0.21269502954395342
0.19259861012158397
0.23258609422314042
0.23571590222500718
0.24886707841493533
0.2229453256044524
0.23116574540560914
0.25362358734846924
0.2773693415346406
0.2948312433820786
0.3110030881312885
0.36388617257290334
0.3866022538947981
0.4398582668116223
0.44146764452803805
0.47730221112553783
0.46593922676177124
0.4922803568442343
0.5415104887005033
0.6541849352104061
0.8159125507859823
1.0
1.0
1.0
1.0
1.0
0.7626696286850908
0.5267933124378112
0.4025042208245647
0.3442912923782231
0.27565388439611094
0.26419184275429725
0.2050838368525401
0.18162351336160082
0.1757797336694889
0.23395866362984052
0.3062680581639362
0.3037167022157443
0.3286947176585802
0.322012812570179
0.355469920374166
0.3442284490438136
0.37670803281370685
0.3894748233460809
0.431565184133569
0.4514605246036008
0.5164610623260192
0.5112609976527317
0.545085765030424
0.5205400074117341
0.5467543424698258
0.5128109194847019
0.5418916365552103
0.5154551039456489
0.4901419702671731
0.48154197214720124
0.47876950834540893
0.4605783654064832
0.4434754713570822
0.43843571859394564
0.41339999526146326
0.4218549524555154
0.4104226827210554
0.41685071919840794
0.41115804907810843
0.4260814064088255
0.41026771023493397
0.42105436436268573
0.40508782123978565
0.4254615627669627
0.41589451113665393
0.41437424545985435
0.39710597312956175
0.4203758276611779
0.40565748570219373
0.4027638824189791
0.407153868006215
0.4188994018497823
0.40306203494826276
0.40816219590655634
0.41427080650466513
0.40528663130606696
0.40357387794800126
0.4185272721448275
0.4186842295082995
0.4009701586379422
0.4233373640052177
0.39685169377370005
0.4086491068169207
0.4034123450807419
0.4199194886371108
0.4103995758466857
0.4157661861851957
0.3991129520250138
0.41843109758795416
0.39938283950137005
0.4122714110094404
0.40416157560505955
0.4289770839910558
0.4189394563846206
0.4154456679428312
0.4075402945568315
0.4134592014879196
0.41171154507483365
0.4162351233353324
0.4149793659791773
0.4152081667723954
0.4164470661261799
0.4208022348241166
0.43058147475514275
0.4220287505070271
0.42293243826879634
0.42626648378128973
0.4526979858070124
0.4526524797554329
0.46185439696911335
0.448759374274118
0.490684437821631
0.49576120438103743
0.49364983778660926
0.4588947823948121
0.4557194577964845
0.42536871543098986
0.46660134761063343
0.423781890509607
0.41954575582475073
0.4149346124750014
0.4349293278763467
0.4148191975087883
0.42389845854699626
0.4286057652946568
0.4328444659531502
0.43459613602039476
0.4391565693794213
0.44413010526343866
0.4401957719214603
0.4399775701761365
0.4524916561778343
0.6631025031993553
0.8827837157969232
0.9495698943442848
0.6920395635227304
0.2520482411697746
0.09221548469173904
0.24197491556347783
0.328636082872239
0.406425570566115
0.42112156386476773
0.45703349631271095
0.4436370936039403
0.46288464888248193
0.4850225032595559
0.48577281235948117
0.49714559506024125
0.5285694828225845
0.5310365952798618
0.5531753987955564
0.566607523328847
0.5871826316052797
0.5916986569627884
0.5965024497188818
0.6093748320271031
0.6132229355926233
0.6154052006729105
0.5926812016443596
0.5959187198612468
0.5757582980560919
0.5900970146279586
0.5638795688777362
0.5541072933765026
0.520055506597042
0.5283340670205842
0.5083879851638561
0.5128777945441053
0.47866809508527364
0.47408562398998494
0.46355528487349523
0.45526167602334394
0.4379818251213991
0.4488847286012015
0.46103352952523097
0.46291530414844306
0.46299700910675173
0.4799352314114601
0.48998346307886786
0.5144714771319395
0.5291538131689069
0.5027943190449793
0.49502371651357946
0.48780632624838194
0.49588155510682325
0.46366264841014504
0.4514502686922047
0.44685052500260564
0.45545368834194744
0.4409607503068352
0.4416868700994157
0.43926204799271923
0.4420535466033108
0.4304561100886851
0.44761379448392835
0.4343464173911545
0.4236453062770763
0.420402531520653
0.3978620982727952
0.3972861819836237
0.5615612480339152
0.8105559727276368
0.9059870360426217
0.684469290038473
0.2559718287877252
0.05625873671061719
0.20313637703540816
0.33486807682167485
0.3993002164282656
0.44227979979978016
0.44562380876839497
0.4417739180739114
0.4526952811923592
0.482019391634971
0.4738564215292393
0.5015922841036679
0.5136682973837173
0.5535559833573946
0.5556770165944774
0.5833800415741353
0.6101199337001465
0.6311682249552512
0.6242762679920051
0.6495216860268125
0.6572456680125492
0.6675730203205468
0.6692620162580066
0.6508450635718944
0.6367576013512
0.6166921222515471
0.5992541930692878
0.5619389677252784
0.533549150783305
0.48163576797217666
0.48403987014473415
0.44264678477499675
0.44277979212592483
0.41956969474556355
0.44374855211869296
0.42194229748297596
0.4443600194501781
0.43451474780250754
0.43257994782798653
0.41367638913077737
0.44104142732508683
0.42518345632671883
0.4648255287623317
0.45407882384471004
0.48687850935799404
0.48363852931455764
0.48416706056723263
0.4583855270049077
0.45535642571996415
0.4315367902303205
0.45023545984739355
0.42291918504291753
0.3916595923510604
0.4104272043494673
0.4183180905114856
0.398531280373665
0.38884499738472306
0.41708796515536395
0.397918197856154
0.42586737140338
0.41618014966337125
0.42958324268496695
0.39720289955960875
0.3927984853745978
0.4127704345770682
0.6215159317710983
0.8517894335434709
0.9596724790454527
0.7721848330479126
0.26131844275271476
0.0036128297126516882
0.2146556080615433
0.3144250260865732
0.39230873366630736
0.41519835995270304
0.43970157262697673
0.4470608917200013
0.4466617754346832
0.4714129515950036
0.4691194599638179
0.5049699206493025
0.5166229446350447
0.5606057706106131
0.544857100996949
0.6009561255222453
0.5968335470130166
0.6525874669606949
0.6220288841641938
0.6569794519854435
0.6496621476089754
0.6562340012096776
0.6350808928731548
0.6389061774876348
0.5971952663633425
0.566478880585844
0.52565870890467
0.4947952242791393
0.46442282110725996
0.4546558734192594
0.4342715989123591
0.40467805726711414
0.4145009831536332
0.3908427879805621
0.41064925718228035
0.3951534242785604
0.4130479870146771
0.4019616818942119
0.4171913134165889
0.4216665283821201
0.43745904301674504
0.43756137341174445
0.47282400059311475
0.4856962088598268
0.47498896635980764
0.43093968881316835
0.4407983860998111
0.4396247468753005
0.41315964090955404
0.39496980565188655
0.40444928467460955
0.38606016908809515
0.3887460786015162
0.38774887180358847
0.40408383378053525
0.3850900394561621
0.3933072328034739
0.4090490555456066
0.41155757961994877
0.40359175839227734
0.3849794928688564
0.35996178469234913
0.4102480361589073
0.6499958691900436
0.8883299610902753
0.8931071476007716
0.5588510268179863
0.09792752446569616
0.03512482350618118
0.2596057060455612
0.325582627713371
0.3967811412110711
0.3853846168126067
0.42371130599939544
0.43070459856165993
0.44643807605417846
0.45170001767337614
0.4822888057055416
0.4874426269159827
0.5197864198334673
0.5246045286223558
0.5469408588604683
0.5770078083263667
0.5966485640464825
0.6141981401662353
0.6277976229688675
0.6398342111013886
0.6462171909237819
0.6497456385496687
0.6340685703643034
0.6275803982334989
0.5801767081055883
0.5566789952145351
0.5067745704710009
0.4820914506514211
0.44263559939004055
0.43535943739249977
0.4116492815298395
0.41807480585350054
0.39329054260723506
0.39946970761468487
0.39218206456074156
0.4049311802734283
0.40292833372799086
0.39730864079557915
0.41536036855763714
0.42667310679652326
0.4524797936543325
0.4445909911617698
0.4638297862489516
0.45535891340900064
0.4561080564108396
0.42005027457157385
0.4074590768266888
0.41117553469006046
0.41145785099968163
0.3921084324428221
0.41467506298172224
0.39487706656233923
0.4214085465405916
0.36513316057740897
0.37870896763260886
0.38835364786872156
0.3926182859150249
0.37814037598099376
0.3869427462438655
0.3532147425452843
0.3941242525287101
0.6227403754420122
0.8351464378917857
0.8270606024771432
0.4601962357837537
0.009991924733107994
0.09598630388696057
0.27815231193888407
0.3577761408097898
0.41456680783136973
0.40080978108195425
0.42512984964116124
0.423317612908385
0.4685832950033803
0.4670772055130823
0.48294065282721405
0.4746302529041705
0.5373854011480841
0.5562926174006841
0.5716199880916238
0.5746141365311448
0.619949154844186
0.6372035089602246
0.651138198445912
0.6447392622563196
0.6255073899530557
0.6295983984057487
0.5990047007608578
0.554620617985128
0.5112028565793654
0.48101900859980057
0.45564260959080116
0.4588711658866479
0.40150807376254194
0.40932999381694096
0.3945772514453626
0.4160741665793336
0.38914823979000013
0.3839740214385863
0.39396452187838255
0.42240191635579966
0.40791291370497895
0.42869087890185653
0.40676139244025905
0.45421883700302024
0.4728773881172429
0.479495747581243
0.43713392957302927
0.45026913029264415
0.41918752608509574
0.4590627369218526
0.44289490124594055
0.49179958649795436
0.549959874283536
0.6791840947762051
0.9121472990008126
1.0
1.0
1.0
1.0
1.0
1.0
1.0
0.7352708568290154
0.28265075018968217
0.2393314128239934
0.1590264397022151
0.1796069234157176
0.14531802426652138
0.15124708113690763
0.1015846383008682
0.11658537232010499
0.10833947272730401
0.12498178789876073
0.08462310822348611
0.10806453468494497
0.10708049282252152
0.11252277007133689
0.1246677793135715
0.1473692718036442
0.16822451139669986
0.1988327886362055
0.2375682595472369
0.2500965697001772
0.29845305768148866
0.29332709784158784
0.3244874148481061
0.32551905630968037
0.329982488373256
0.3367029344677663
0.3519417942427634
0.3529726276830426
0.36396545497617455
0.35047263150227603
0.36282463504980034
0.3507407320238657
0.3799935629125325
0.3878565894484537
0.43792842419974765
0.4923547698911954
0.6121321573697294
0.7748252023551283
0.8948552397526207
1.0
1.0
1.0
1.0
1.0
0.6200438342711656
0.4638373814489145
0.37426593866836255
0.3103262238340524
0.25821896906767544
0.2481159800855627
0.22407128619372757
0.22526565615317193
0.2059064749838504
0.23158142917950592
0.22016706146729
0.2445331966473215
0.2534057865984579
0.2852421836502177
0.28041053297567636
0.2948652761379379
0.29814480782781494
0.29898181224401055
0.32112821488770793
0.3227794707084726
0.3565467590686813
0.36938760335575777
0.3808512810752902
0.3575936293499861
0.3739490539598023
0.3763539223360395
0.3811076810389066
0.364679075287231
0.3658151697951363
0.3705021592803819
0.3734739821678971
0.3675487347680545
0.3731951233580323
0.3716289472478362
0.40165085053439176
0.3712674574906368
0.40943320129566485
0.40213525643648695
0.3819991232810455
0.40097608534314305
0.4067081613943334
0.40113526472407024
0.4113168656249126
0.3872973918407395
0.4062551428598846
0.4115385540662057
0.40509577561500276
0.3940354677710718
0.40360270850777036
0.4179907118741492
0.4025966610401685
0.40546771737778264
0.39668059360689234
0.40763334804292306
0.39889258044061543
0.4124130945776061
0.3979373184905934
0.4070716188681122
0.4062394535251606
0.4276124001785174
0.4216544525880441
0.4194771499573994
0.4212136336482056
0.4324135827813101
0.4428874123519111
0.48171232280666987
0.47446831248838717
0.4356626425764493
0.4238645470537338
0.43236431422245164
0.43029502633967665
0.4093398792248988
0.3869933830339292
0.4149433571645381
0.41692279285384765
0.3846564597939811
0.4078725424430793
0.4060281420442767
0.41029896512466707
0.4024234709321705
0.44373156474804193
0.42649732434273985
0.4164201344387212
0.40646594133148983
0.5736512885206063
0.7410750557782368
0.8518054363422414
0.7978353240638864
0.5271351018906106
0.13168086094981737
0.15260194553813444
0.28897941074411826
0.3639614846499245
0.38774121028634817
0.4133065115927056
0.4396062450829058
0.4458626660887178
0.46022658001856226
0.46972897014826487
0.4796374209675715
0.4987698576880649
0.5260953232020674
0.49747823211647163
0.530546228039406
0.5418190899347295
0.5734371618458425
0.5988128357979139
0.6065601090656696
0.5823133154447382
0.6057269722217814
0.5998808919606253
0.6100063012602507
0.5866165826519949
0.5883885401781696
0.5852691837571945
0.5609216843597729
0.5323005620269268
0.5355774636959214
0.49541578634443395
0.478327444998573
0.4836763308589974
0.4464395362661186
0.44975793895617305
0.4349487350570732
0.433726559901528
0.4437310218105086
0.43800928755720153
0.4494662908577811
0.49403156515718116
0.46328516271767317
0.5092095280789671
0.5012066166406907
0.4997303865534722
0.4614797974529533
0.4625074122573857
0.4682502412954994
0.49501742220162726
0.4417608352636343
0.44273835079742696
0.4371898746287184
0.4573630204531778
0.44162772431546254
0.463739619005097
0.4241740929438801
0.41264255439957553
0.43275553097570274
0.41469845143836015
0.4354694415918378
0.4132036782154894
0.43687018113579423
0.6010751797297244
0.8190618577003488
0.7595109936330723
0.47273602023694455
0.09332917901376661
0.215840265659457
0.33523457241772664
0.4060306575245984
0.42203211029638166
0.4656856997072315
0.467661626199697
0.471553571856041
0.4890924363243593
0.4871161069085196
0.4990082458476495
0.5273882138877786
0.514661130194275
0.5666051136801599
0.590753704447097
0.6200934322798648
0.6516306381184535
0.6564948219130841
0.6446725970875812
0.6575756006365265
0.6672376857071037
0.6441856406947754
0.6338799177692249
0.5882335272586307
0.5796006648034551
0.5155507225628833
0.5006455357657573
0.46785158833766494
0.4773473158617053
0.44485977135010585
0.4556220604329438
0.45142278175726086
0.4537300034149293
0.44100702906087247
0.4365177340575707
0.4344496436874149
0.4557280146936189
0.46008589892045915
0.4682650290108755
0.48184338682663413
0.4959083667413656
0.48685861106101547
0.47920833849903327
0.46777245959102604
0.4655245460021292
0.4424060496018038
0.44625242164682843
0.44967539553170444
0.431427899814499
0.4565761442503812
0.41489802399290027
0.4257541485964139
0.42952783785107157
0.41681986488955614
0.4238060895901172
0.4363827009635931
0.4200464558143236
0.4383076004327739
0.4465354121659095
0.420537755533652
0.4063935025504942
0.48970284012159215
0.6304464161418866
0.8528228773541542
0.8809539927213086
0.7001989091775492
0.33206990734819986
0.10385444671352281
0.2347351105616083
0.35217820453393356
0.418262415275238
0.43781242741891546
0.4375007279676181
0.4513453051170151
0.47080473872979
0.4702686313538921
0.5162969895458163
0.5050203644177816
0.5271549075900052
0.5202996987534498
0.6159180853910083
0.5727426015814154
0.5914524288667481
0.6110031866774677
0.6476931979971324
0.6451125987529869
0.6576656886821277
0.6495392871745624
0.6701808209060067
0.6570103302725767
0.6442039288903592
0.6271788965976971
0.5999217303620181
0.5664589906629638
0.5369453634437089
0.4934476604474002
0.46865223481954404
0.4854915590454576
0.45485873650968467
0.4548095377241011
0.4418084069927704
0.4671294043953938
0.4531519220870933
0.4668562482833873
0.45836059737601004
0.46339613033473226
0.44872220069078084
0.47442398570234445
0.45466348630779213
0.5086348518195781
0.5500531602569053
0.5058771672760755
0.43385693842382966
0.46385522206307606
0.44553752655036083
0.4750087726406769
0.44419936473902366
0.4308064646924977
0.4227254090822191
0.42242916851758483
0.4518680163511116
0.4309049919234729
0.44356507695277153
0.4312112130802781
0.4231541658440798
0.41481540647807763
0.4311117575472633
0.42420557363166084
0.4134594938072362
0.4454445460702143
0.6418800894896493
0.8285438612242453
0.8638045320763512
0.5282948298208842
0.13182520243081514
0.13155624273123773
0.28293509363864333
0.39774746488926044
0.48279614530981074
0.430360298805739
0.44484787398338305
0.4694476771539725
0.44964130973712874
0.4828323327187416
0.5081350279333956
0.5510250006771528
0.5251622581269512
0.5135061945055018
0.5507591169756625
0.584002044124955
0.6209637531023644
0.6518059989954922
0.6279622735213167
0.6552762541960462
0.6459041888519301
0.6705771209266175
0.6334931485527698
0.6369164499632564
0.6074921230846883
0.575927050150159
0.516342134230174
0.5404132473540286
0.49067002103706325
0.4721378592645237
0.4298779487133325
0.4505902575334438
0.434123527218082
0.41729103269315326
0.4538194728520514
0.42362415610560344
0.45557166041844177
0.43931055084947845
0.45492449878261565
0.4414483861280368
0.482993280440851
0.4697636594296776
0.5069534973666315
0.4855598433325753
0.4916120426990946
0.44915751883388266
0.4332255716460531
0.431997466969814
0.4546124946917705
0.429334053657341
0.4336649452807121
0.42760028703198494
0.4333822823833418
0.4150785153225797
0.43270472378389496
0.4332262928473389
0.43769265849927796
0.4244999370085135
0.44108404437222665
0.4460730017712281
0.41447880387896713
0.4134865101734057
0.4248125440767616
0.5763190091161795
0.7393778159342876
0.8493382541152983
0.7248013595440918
0.39483307548546315
0.10883435643310246
0.20052028728549898
0.31924401911525113
0.41422244695632815
0.41771520481715446
0.4539054949531115
0.4815204451269494
0.4969849322548628
0.45119697219393684
0.48515459708136677
0.49931665648192575
0.5229406313679202
0.5570614172578731
0.5626857567199061
0.5692754105613339
0.5938420419424515
0.6421225003599275
0.6526771073813717
0.6491698564487164
0.6627062985328386
0.6710647995687689
0.6706021526604118
0.6708693347166532
0.6454249747821384
0.6297250454963564
0.6058373891736931
0.5632757634824056
0.5172931560829142
0.5230064046156291
0.512740976267742
0.48452227855367147
0.45431707252982106
0.4943971882325638
0.48073670065771684
0.4560907385272114
0.4537474804223184
0.46851340409604764
0.4556150480266824
0.46187567545837477
0.48340670177478273
0.501242498323794
0.5145398851897884
0.499442305601545
0.5090329678301748
0.5314015910312266
0.5069249142089143
0.469424163559376
0.47532167031006195
0.4889874161850643
0.4732695990362369
0.4598161298545074
0.48635743912295126
0.4452787018045569
0.471057836817547
0.45781709047532015
0.49121455494587485
0.46187528202517764
0.47708064729312094
0.44327848026844513
0.4621968712627761
0.4736322072734659
0.4496271945297363
0.4254589590231476
0.4842314789807909
0.6280577515590011
0.8176844529486976
0.9014180712413093
0.7772419625302867
0.40720095860821165
0.13952125102858792
0.24771460136265344
0.3823807689933269
0.4616819390361668
0.4469749043776088
0.4760739013682421
0.4818891810795405
0.5318726967597053
0.4937451718016249
0.499481040529295
0.5175234339794396
0.552286278184715
0.5726214697021893
0.5878448364680102
0.5938860070640091
0.6340556367063851
0.6724389214902923
0.6622546993732661
0.6922551408194244
0.6913179164242996
0.6944761864470363
0.7198863596319743
0.6904537746320367
0.6713163068676283
0.6513324084758148
0.6348026543991854
0.6106880438374699
0.5584568415749668
0.5507502688228958
0.5332857954929154
0.5246019137675592
0.4784031347646603
0.4846882557820549
0.49968280960031636
0.5154033561726528
0.453766702206621
0.4768143496001784
0.4642138966707144
0.4742386410952351
0.4839169462789073
0.5250369444529669
0.5093954726858707
0.46881989224405246
0.4815300742538892
0.5442791945594836
0.5308309635136025
0.49190094304592125
0.5152228193532093
0.493912898473625
0.4683221873251432
0.48192882749209576
0.48408962243164033
0.47946777600730994
0.5045679355761834
0.47465583581459453
0.4857477018474312
0.4685979178706254
0.4759250088528411
0.4700940656064888
0.4897674234163345
0.4881693297834532
0.5067531887762134
0.47271638574047187
0.45665738121723065
0.4591886919298981
0.45462007338798893
0.49683421003990713
0.6645180702545532
0.8497087592213403
0.9981514278310808
0.9494477107754111
0.6900668794098174
0.25374286853388417
0.1691305212447086
0.33258269740896906
0.42736961546488256
0.4982338958467424
0.4915730276160263
0.512242633358434
0.5045878029135857
0.5241619721215125
0.5048764073672338
0.5252657727427256
0.5344423709725212
0.5683360096074521
0.5754411417105723
0.6029168503209951
0.6524769156665705
0.6337284613288603
0.6446660823107426
0.6859421107656534
0.7201344895281887
0.7109803958447036
0.6792775700993616
0.7133762733029935
0.7064267461773701
0.6965002579796433
0.7046897411539218
0.6192147280732531
0.609537205632639
0.5665515041165028
0.5482357677419667
0.5583315896183816
0.5383897539826801
0.4982887456794833
0.5048876013814587
0.4993278277418007
0.5198864378468941
0.48990322255273433
0.5046858935534492
0.4749773067978369
0.5039722021622481
0.48566058163786574
0.5350711177610965
0.5265808337489687
0.546955621983056
0.5573338567212491
0.5243218695640357
0.5065691653842322
0.49513785874510186
0.48278390913962327
0.49164245689345754
0.48083487578950274
0.5077534217359049
0.49039250483513125
0.47634902895881803
0.48438749835310135
0.4844214486636476
0.4841271989654767
0.5087911651180308
0.48617631766058356
0.46050869464883365
0.48991154239583484
0.4626692872636622
0.4799379906046993
0.4839295152295728
0.5566045519372446
0.7265847856621306
0.9498548183160833
0.8931133582258072
0.4850334530011933
0.171206521277015
0.3039144582534265
0.41321320658099026
0.501827375904327
0.5358890871794403
0.49333649088232506
0.45715700313020935
0.5312099364508808
0.5415389636854917
0.5598618209186406
0.5536429691575077
0.5631341656587934
0.6056168161687583
0.6120272450872899
0.6190530537909553
0.6490026514513273
0.6810024191475447
0.7016190823039755
0.7287654371661937
0.7369983813437212
0.7073901391788068
0.6901614667325664
0.708989754063697
0.6535859244555373
0.6190958609033328
0.575701406842669
0.5580057675703022
0.5169870758691176
0.5086209641561754
0.48895329817083866
0.5222686626789425
0.5056077415957814
0.4788585759960772
0.48191767186088486
0.503977229249126
0.5165468491487422
0.49020311520321636
0.49569249456212844
0.5036412919623275
0.5400939192393743
0.5307434069069802
0.5569190249188607
0.5118514442192159
0.49915428155452074
0.4774668750516956
0.501742945002104
0.4776470355090054
0.5031052175372445
0.48352126335710527
0.46521592972374315
0.4534878196264255
0.47788925192465304
0.478441402885346
0.48257718934194704
0.4689565568447077
0.5049483343930893
0.4703293219293886
0.4650467577479794
0.4792701064525927
0.43065675365052714
0.5556652084945545
0.75258124663065
0.9536030467742016
0.893666573006459
0.6280608497113779
0.2083692794034714
0.17793270933047084
0.351040714645985
0.4603868848838621
0.4705117540454484
0.49978119206360716
0.47388140390618105
0.500482851464982
0.514349429864718
0.5504132567992744
0.5116645755912049
0.5531269498693456
0.5806710102065745
0.5939668821671208
0.6423977385810672
0.6777094470117448
0.6764414684749227
0.6675222495411675
0.7003777865457341
0.7170748768647487
0.7075159277854951
0.6792816037136555
0.7109890091127207
0.6454629824204906
0.623540512959603
0.5941209847832905
0.5476635140312396
0.5110199061701016
0.5257239971562242
0.49838189928883425
0.5166129975414926
0.5122456371944435
0.5287080603610957
0.48071203601628065
0.5055449967717766
0.473168739959977
0.514757334107391
0.5028243900126916
0.5164886791962134
0.5397734147554002
0.5637704870268425
0.5147319438561478
0.4808390275163271
0.5023474001459314
0.4918694844354731
0.4993657981015002
0.4828176956508661
0.49679292474390335
0.478510995235735
0.46104218425050086
0.46519369603230604
0.4947138556759684
0.45027211042686666
0.4845946399670404
0.4658667523888738
0.47536744271132714
0.47954097420230657
0.4709335462818114
0.44657664020772314
0.6123611069863332
0.8637657906018191
0.9163713901648768
0.5929761827546669
0.20480616012646724
0.21454175078086252
0.37071743436926063
0.4526895208504242
0.4823877391183973
0.4823788022571949
0.49997042342422227
0.5527866790528819
0.4955012633785055
0.5187032661374701
0.5321233967880906
0.5850511675000084
0.5793932525668096
0.6399096105692585
0.6349476813963255
0.6612762264558223
0.6777930271865746
0.7020059544070685
0.7079201711838008
0.7324153111449789
0.6988120964601898
0.6678817854060926
0.6381440462126902
0.6246081794442382
0.6184314156322548
0.5695141993792349
0.501044604751521
0.5042949094657406
0.5166508470788991
0.5138713157328482
0.4977778842975507
0.52349155893458
0.4843925048748187
0.5075115592648347
0.5145092300561324
0.49712048775422557
0.5471714282934607
0.4980922942185993
0.5238354329355583
0.5458447245482007
0.544483153175154
0.499853956619894
0.5217732313182502
0.49403997156313706
0.5199319008655939
0.48270326298487626
0.4968153349570965
0.49268140221876455
0.46196223428043803
0.4871408860992809
0.4878152752492005
0.48335101578056944
0.5026450148728564
0.5164993236054329
0.47753972829926516
0.492901058678219
0.47254678290703717
0.4999694494049711
0.637863550235603
0.8423654716303582
0.9583896893358824
0.7203832147211064
0.2557154023757782
0.22119576621311982
0.3732531599486329
0.4617117200915096
0.49787900241348637
0.5287035298748215
0.5255618271703805
0.5322529864844154
0.5384645656499597
0.5671785914475228
0.5716587810962093
0.604287048416962
0.619453932277573
0.6426743877506563
0.6720313705016709
0.6969167135082796
0.7090427870827959
0.737810659355833
0.7470035248579088
0.7414942360588391
0.7501263717166079
0.7293724137074478
0.7212418654882111
0.681063805724448
0.6484063256197199
0.6023169134680404
0.5985576518685232
0.562737948149086
0.5602313649437043
0.5361357396851129
0.5412149488838418
0.5269190025649368
0.535760217210609
0.5235990426575156
0.540725724106984
0.5280011529983841
0.5398873377924496
0.5463024055640998
0.5628164460266857
0.5827019862965994
0.5831540140628023
0.5749340797207002
0.5544528762996028
0.5401552454930649
0.5414860743089522
0.5365079105202539
0.5331398348409524
0.5334879954640304
0.509163110794799
0.5314550773947092
0.5146731538024705
0.5365051409010165
0.5163144315208184
0.5294550177900421
0.5219225748283891
0.5362270031767415
0.5117525131313079
0.5126999373746116
0.6182545364927343
0.8913036350310037
1.0
0.8760769846925658
0.31665190313706315
0.2556780308990438
0.4330687450664971
0.4973065562798312
0.5358531159230246
0.5521732945648011
0.5712432184663585
0.5822360928285921
0.602838731123442
0.58569846206747
0.6319601185499402
0.6457334972768601
0.6699369796161664
0.6791471994089701
0.7246868189461989
0.7289322034521006
0.7711117082550574
0.7734343475995505
0.8008076155270161
0.782921928436892
0.7932336703500471
0.7738438145135047
0.7554978588980126
0.714277183068524
0.6917033342830541
0.6595690654882576
0.6232815416148669
0.5950697720565576
0.6110328091395584
0.6037097721647818
0.5953225511883737
0.5950215986402183
0.6175428724819999
0.6081001053090925
0.592401710577046
0.6277697341883579
0.6212067265171458
0.6479172406798791
0.6354625442265226
0.6543873394715679
0.6697904653483137
0.6522012492797408
0.6337459177724287
0.6348819836773609
0.6125459704351636
0.6525508436182859
0.590113323365848
0.5953175671778441
0.5952859030783795
0.5993845601003563
0.5902920371549449
0.6055490894535518
0.5960503830153867
0.6098611114790807
0.608818862721083
0.6180917475196193
0.6196221160242157
0.6032408515303661
0.5878629339524838
0.6444638069880536
0.847307492476461
1.0
1.0
0.9251465296806423
0.45154437769893213
0.3197022687775662
0.5008220495696353
0.574875655335026
0.6307523114172697
0.6318797234123533
0.6599724196032348
0.6357077295864162
0.6641973452177282
0.6756896120370351
0.6813004992422746
0.6802455640182546
0.7190475807256718
0.7413723607087537
0.7605741926095453
0.7823408676774115
0.8099272833864035
0.8243553025935763
0.8410398248798886
0.8415189827344058
0.8274807557685756
0.8203151326703205
0.7890079349278754
0.7775939206012525
0.721550215892688
0.7017881101229676
0.6523695205841051
0.6536171590871344
0.6170770782900471
0.6096746243852029
0.5870411916001179
0.596554971406473
0.5842001263581039
0.5854611405143743
0.5659615159878816
0.5859584344136535
0.5885687289716856
0.6115176529692216
0.604422975305209
0.6134075826285545
0.6164309625208338
0.5897770001487009
0.5863863815698253
0.577814064757779
0.5842616806955211
0.5519783671157419
0.5570903238242574
0.547299937833035
0.5530438798031508
0.5468391529982275
0.5741390101081544
0.5523863406240175
0.5510611624399689
0.5446300607685601
0.556754307655386
0.5602787058511904
0.5615431494277635
0.5196627203427064
0.6513142688306631
0.8634032141855098
1.0
0.9810157388098315
0.5458234666945911
0.2344720257947209
0.3696034647330064
0.48053989901890626
0.5515189795122334
0.5440214486299061
0.5643657801408932
0.5822274404426578
0.5871702011613406
0.6003728166903034
0.611905057353645
0.622706518545989
0.6236548706115912
0.6658713794142097
0.6821150171286586
0.6933478326908398
0.7083097142093882
0.7284282762015979
0.738495368610927
0.7656386955029358
0.747061821298142
0.7811715622520049
0.7420472108769189
0.7397559303527149
0.7033749119036429
0.680265137736516
0.658117055132234
0.6126852693627493
0.5896457876097029
0.5723152223164569
0.5633151280812788
0.5668455346834386
0.5630939079390752
0.5488790501732863
0.5549406214611714
0.5420595406237371
0.5560832103241522
0.5340713900657373
0.5628602546232392
0.5713757861828573
0.59148814320183
0.5917409901682524
0.6121777547368066
0.5595912542727224
0.5575523778426453
0.5413563456307531
0.5453947997329961
0.5478990001137829
0.5427176497759103
0.508958911956501
0.5118260193334511
0.5211484903670373
0.5375122170168128
0.5189181558096918
0.5103569411763746
0.5252452870427846
0.5321407310535863
0.5258992576496345
0.5168056123393876
0.5249796540348886
0.5155290955650905
0.5110027267109829
0.5207142964728114
0.6408773984715701
0.8148545064293573
0.9497087150859581
0.8891515012783406
0.5971520524842053
0.23969254664132905
0.27778140470866214
0.40250025314969157
0.4886848851433359
0.5215823946250061
0.5449081059672609
0.5682905389016049
0.5558460811784861
0.5553469484561339
0.5826075123985219
0.5902839288885967
0.6065821808115238
0.6129579099224214
0.6246402351597637
0.6408483869909808
0.676847913526048
0.7124622764514322
0.7174653747141368
0.750936488980616
0.73230095883465
0.7492461105639113
0.7379392800414726
0.7422152049858534
0.7304377944705379
0.7080334581942219
0.6631665178378949
0.6591144906362334
0.6055396913353926
0.6025092793960374
0.5727344113333558
0.5725891610671879
0.5699290715648375
0.5609830242540497
0.5654704280636359
0.554365117713464
0.5663024565285417
0.5593016271277139
0.5497615388019874
0.5574343477422203
0.5833233416076
0.5867143282603963
0.5936587986655683
0.5977429404130957
0.6049237451608539
0.5865565592466288
0.588275041363959
0.5726628162638587
0.553814062102161
0.5620617724344023
0.5563837372007276
0.5200246470575359
0.5357326770064911
0.5328436881651231
0.5397804856769296
0.5417652297642672
0.5419142954260825
0.52955019182616
0.5381798023643691
0.5332935335363864
0.5369515457697039
0.552884652805917
0.5388454195900989
0.5108746327729061
0.5211191228886979
0.6443529980359919
0.8125484858001915
0.9740999812072093
0.913162453257199
0.5106716169926295
0.24153940174396346
0.3379477292651022
0.4428281390807224
0.5250315884010193
0.549594149842954
0.5537710189984028
0.5336699875727373
0.5881884598044439
0.5874677352875529
0.6005031634649433
0.5996974597952264
0.6055677583149912
0.605242417841003
0.6468521457732186
0.6595250111892781
0.6727343446795526
0.6986950536460617
0.7362989929881953
0.7481541582238547
0.7491852649945934
0.7320742504007458
0.7448760062569681
0.7568964340096105
0.7373203564643351
0.7463371755435162
0.7241243076120207
0.6964624382065774
0.6376595586983274
0.6325399532765827
0.6169916947026242
0.5902361686892166
0.5572987836134857
0.5721250170928438
0.5702381309128114
0.5757073509909494
0.5506040350767206
0.5626865802750459
0.5487900533155632
0.5512925351128283
0.5655780168636494
0.5745955891943848
0.569516001688106
0.5672061008178562
0.5825209734416885
0.5936951874962283
0.5859229870462083
0.5637185699965641
0.5562085006066216
0.5334171368828061
0.5327031342924452
0.5453386046500716
0.528335084928697
0.5048760065109464
0.5281387199365895
0.498213588906706
0.5263056768833643
0.5189373877779737
0.5254461842339377
0.5067965267244358
0.5163338955463243
0.5108431140093772
0.5204956261562791
0.5019335247170318
0.5114753811681061
0.4697973990031589
0.4509236710099719
0.5482387178889325
0.7133825759596356
0.9053926627822684
0.930303607278886
0.5840161400890344
0.2350293711676382
0.21630929566085055
0.3310897780226555
0.43209637486572083
0.4683543833449503
0.4851067408994766
0.49153001303429544
0.5063037237797502
0.48355355316404847
0.5012207551928071
0.5070020494955544
0.5268214931253369
0.5219957731169853
0.5334141563511101
0.5510358324504032
0.5853528699026278
0.6005976817023106
0.6189903967832621
0.6218051379177685
0.6358584482111942
0.6535459148602758
0.6494974652219281
0.6497285732393158
0.6240575143211637
0.6041596956058272
0.5859677439052632
0.5647373340413038
0.5157297393963476
0.4986999878119535
0.46389741218418407
0.4580263599281748
0.43433437825907495
0.4446586498726049
0.41592015793276615
0.42628740237851703
0.41076433050011973
0.4208162700104932
0.40807451285472973
0.42012047861181046
0.41399638077653356
0.42333778739590394
0.41666315149151184
0.45381157092043256
0.46186993035432183
0.4598822841307445
0.44378914209773573
0.42622573645762474
0.42483071858396704
0.40941134086468145
0.4186060242925535
0.40200488445888605
0.3984078633479333
0.39298927984527615
0.404406401133489
0.40371702970529133
0.40789643882796456
0.40462907395781744
0.4059536873203851
0.3943031150961658
0.4097591509020215
0.4002721782888651
0.41002645019150685
0.38555549939864947
0.36110596339269285
0.45314397731592065
0.6428064012167963
0.8325860966069654
0.9904767050910538
0.946724672333743
0.5242729383731908
0.13496153275493922
0.21345337688251478
0.32984830072472304
0.38393582172906565
0.38889946928297137
0.40787374709445245
0.41967494534109495
0.41638784353493535
0.4109910926403229
0.43079061843320077
0.4537913427742546
0.44565774753536863
0.49702252769986693
0.4964031497313651
0.5144895639068066
0.528705911318503
0.5677089845591878
0.5690720554334154
0.5893878553204848
0.5940361832441157
0.6156563684093268
0.5935286686298519
0.5869976456531044
0.5651766877599784
0.5453996405572445
0.4964011845359268
0.48164793100781045
0.446650364394651
0.41252869751631066
0.4091021598453989
0.39036087455649165
0.40142243599897875
0.3847288732937927
0.3894173715896706
0.35954207840970287
0.3809689568372959
0.37968122190419434
0.40305704554486443
0.4036440594855228
0.418085303595809
0.4149100471283709
0.42701794776768265
0.41333022705271494
0.4187626417026763
0.3960453849268535
0.3870973882778066
0.3796009162017249
0.39104263690278934
0.3705859100153052
0.3577701448897252
0.3555541285975924
0.3655019367205338
0.3604293659293877
0.3657360027542359
0.3704593863423037
0.3503230691528536
0.3716336325887414
0.36218107117749493
0.37972372459000375
0.37483037818165776
0.35654748693885496
0.32005463645965504
0.4521014449848629
0.6539610658763346
0.8890367949421533
0.9764349961442693
0.7438338379215814
0.23030959346298513
0.09144474531072717
0.22360427182356588
0.33209280914714795
0.3527677856416441
0.3623046348334834
0.36525064674839863
0.3784758549421584
0.39356190890294845
0.39382691535232484
0.4016049571250256
0.41214503618093945
0.44026968808616856
0.4608412277696262
0.4714645197241617
0.4971920212146193
0.5373583894867782
0.5447847981798651
0.5681923486731342
0.5869077627962715
0.5908611409485982
0.5650142739631319
0.5708606561273598
0.5380879217581696
0.5099232209497935
0.4575727484197877
0.4428453125117088
0.399588749782206
0.3998466635357152
0.3633672501820807
0.3626560533968533
0.36075624971431763
0.3583551186184007
0.3520779379363003
0.35275877844848463
0.35780767195161794
0.3616121577667336
0.3714673711043155
0.3656859247562204
0.3879751695473689
0.4051314924537495
0.4036665999677707
0.3649205859531856
0.3693836488201264
0.35172208793859855
0.36024807949448856
0.33387076717347836
0.34554592301663745
0.33447615172721246
0.34685574548221876
0.3382945157887651
0.34833488092690745
0.33013166600483557
0.32981611663597116
0.3327643254581716
0.34231911035406093
0.3368801651642103
0.34361087675914026
0.31672263835136816
0.32961356076857895
0.5324916427128569
0.7973413795133926
0.9611461653508627
0.7486899367335196
0.211702498155514
0.07278753892692329
0.25644988757273196
0.31073401782868426
0.3529593971217489
0.36412086980695013
0.3692291770490808
0.3517729970632305
0.3941241543352283
0.38629602239178673
0.4233282124943716
0.4221989462578654
0.4670957807385596
0.4813308217121432
0.5065179701639262
0.5183422314096587
0.5491424870764962
0.5561560509857854
0.5775678796514176
0.5821886565824415
0.5774174179977405
0.5686788688210408
0.5420684917816525
0.4999750918864828
0.4689419352730761
0.44819248484356394
0.4118583813620025
0.4002303580082409
0.3852520087601573
0.3833232664524053
0.36629976948321935
0.375849204954133
0.3749663193820986
0.3889289502912844
0.36828165306609517
0.3734040604424197
0.3793705308326132
0.40567490223248753
0.3955836750215642
0.40832679078694883
0.4084777430651731
0.4108185355379865
0.39667089235560626
0.39816773028687963
0.3721068598539034
0.3917752570936356
0.3627523681460617
0.3663290283479036
0.36550028896629455
0.3718116359969873
0.38028910176105013
0.3648950481226698
0.3697626766386445
0.364543338613413
0.3781600391465948
0.35971462909511204
0.38491605756458164
0.35564784231217417
0.3415393233267261
0.4306447332056226
0.6610017219945479
0.8548520075067678
0.8957452733358192
0.5131003426041694
0.13194111219287108
0.1928224218564512
0.3217917252887928
0.36277669447529104
0.3823521283709635
0.3922927858885342
0.40480714353486746
0.39214069634798376
0.4095370677893304
0.4307393056606938
0.4512110282774227
0.47506303662650484
0.4858071469054213
0.5157473504259094
0.5307059794219545
0.5547110531849465
0.5635741966202196
0.5825528206086152
0.5743379406241662
0.5966958219384695
0.578922363151736
0.5768118260493993
0.5276518175415394
0.5013512375689642
0.4617878315984646
0.4635351930562862
0.43085311607782134
0.4070427765448451
0.3979245940867734
0.40702237320428625
0.3993775656619024
0.4019666329129309
0.387881778563462
0.39034040241529533
0.40413209491084545
0.40804690078615014
0.41344632994702774
0.4160937534717009
0.41915865633634064
0.43766532555916415
0.44741319192049434
0.4367743179207646
0.4278905039356104
0.3981918717681843
0.4175697010377726
0.40430035760956506
0.41555501660006744
0.40242358533378536
0.40359118578549136
0.383955182272559
0.3921150451049299
0.39867203984196997
0.4043828364187264
0.3946839391711512
0.40084807385181664
0.4021706859659987
0.3974019366194787
0.4078259807186294
0.38824441081686534
0.3937269421233428
0.5681845165436531
0.8095965441688626
0.8964640370319146
0.6619906030575047
0.21198016595088962
0.2004490087041156
0.33732447715612734
0.4006520041585119
0.41226960123912215
0.42445881605512403
0.4212166727232349
0.4335906363706151
0.44022029196070156
0.46611353933761474
0.4614456822139671
0.49354741071592534
0.4966111154402421
0.5251396965909774
0.5425463884508248
0.578836917168808
0.5826475140127921
0.5890089217545632
0.5932434278444519
0.6055459190153142
0.6090416333783093
0.5961229891012448
0.5849295208406349
0.5569485654538819
0.5189967260242312
0.49429097089908847
0.47482715853597324
0.45829369924137947
0.4516758214035964
0.44637511762763393
0.44723354431017837
0.42460542071867524
0.4295952412947449
0.4250172655765622
0.43523297694065216
0.4405566522020977
0.46425004892232025
0.4689216980791879
0.5264034433125659
0.6183299919619983
0.8022475347231147
1.0
1.0
1.0
1.0
1.0
0.9897180667427563
0.4635015629516127
0.2425053593794444
0.22064302173619604
0.2209253442416333
0.24717704872718604
0.2571328194416041
0.2611251363275956
0.25616482829176235
0.2660616740367096
0.261324906290198
0.2787667981294585
0.2704331990814163
0.2816476944162779
0.286186954369614
0.3085216548986407
0.3194680268048403
0.33231443537029237
0.327712427626366
0.3424994085389255
0.35696546825824277
0.3715914047870089
0.38881133046481586
0.4123489000213687
0.42355257629481874
0.4355747805309984
0.44454540051278785
0.4432038950690026
0.4336011065464733
0.42025527824377873
0.4196268601228204
0.40440184694875925
0.4145992854975923
0.39905969633117155
0.4178584734565042
0.4038110158521902
0.42551604812959126
0.40541301974934696
0.4150887634813145
0.4108916289444039
0.4167831869052544
0.4084348514921457
0.41754902406241295
0.41452218300816207
0.42078122007474156
0.4123149129221881
0.41756828107979416
0.4091588102461271
0.42247265753088126
0.42726308332360513
0.41221183205097756
0.41257190654133397
0.4123124504653665
0.42005668430331183
0.41655029573120617
0.42115907352982873
0.41399524625894896
0.4326439748052052
0.43591425333716954
0.444874966617546
0.44743324331204837
0.4758316134459298
0.46339829299477947
0.4591974296933981
0.44050496552758656
0.44170842017469863
0.4381225355426276
0.4385389637928041
0.4136144296615809
0.4240031618867756
0.4216737910609112
0.4260763922345078
0.4263745229483121
0.43117735672349305
0.42917797633966737
0.4242484611044743
0.4359867637741647
0.43012690234654316
0.43249154713078425
0.40777759358857246
0.5068539609249715
0.6781264009936628
0.8354755305335619
0.8324187594934103
0.5552692350397741
0.22189598411224334
0.27131309865591857
0.3608242470844806
0.41147700216708893
0.41600785893590037
0.42885071603705543
0.4377971228391699
0.45050027434690465
0.4561621119665184
0.4649612995637706
0.4716618291513576
0.489523762008501
0.4941546868149011
0.5125262870209533
0.5232838786207241
0.5320889727654534
0.546130362378839
0.5445921003396812
0.5513740304502532
0.5436721068311066
0.5555404542355146
0.5436185174078138
0.5501584494619307
0.5376126693279224
0.543902119919814
0.5179535309179973
0.5019158245753593
0.47470960780885274
0.4807117027746699
0.4642351637551695
0.46109453075673573
0.44734310783700365
0.44906370290759146
0.4451120561992207
0.4513350712556384
0.4479242943485122
0.44980152340929597
0.4566329181798635
0.45709272645053345
0.4751358987872495
0.4776223536851515
0.4891774020444021
0.501499193139185
0.4953083359829926
0.47572964193523265
0.48069908490311725
0.4636872513020095
0.47557446985747626
0.45264814298482003
0.45033882880347614
0.44392102758603064
0.44983774178685865
0.4524695052861631
0.44478208064744507
0.44377236952800414
0.44579899040839355
0.4424725677523854
0.4404605028597518
0.4537002184408917
0.4465730528555456
0.4392420297785519
0.4188129785955795
0.452903145019716
0.5789456645855744
0.761411411050018
0.8036687151505155
0.6641753706132115
0.32285258643684644
0.19171136615154424
0.3326654141332141
0.4122731607994942
0.43489605179316904
0.44357525932560504
0.4522455448320522
0.4738970685059017
0.4703356157568555
0.4871998706426859
0.4896525647292915
0.5039664368711984
0.514820957303184
0.5344206784649682
0.5348178999707971
0.5556029110178893
0.5727756445017467
0.5982709597215542
0.602704114603918
0.6022190671765695
0.6068735927224762
0.6019306159744019
0.6099881110242222
0.5993391135214632
0.5885727083747301
0.557581124084684
0.5393801690887415
0.5108007868985232
0.4980340281070439
0.4719838564750433
0.468594274752611
0.45536753920032985
0.46076165186176954
0.4515644069540986
0.46757807299140797
0.4449015732776057
0.454905597760197
0.44301990214574544
0.45891887024281075
0.45065756412945673
0.46886670995271845
0.4738503781882356
0.48590096679757
0.48593479789827826
0.4953257854429272
0.48513746073882036
0.4881404564428233
0.46985119397615877
0.46803376049694717
0.46928176594248266
0.45622754670700816
0.4510620739058762
0.442910339165301
0.4492944091638133
0.4518242470403431
0.4593708631284156
0.44997119947671643
0.458117801993103
0.44962040999084285
0.4592777658477177
0.4578520140279533
0.4492025468106867
0.44216698862527337
0.5589536175552969
0.7370684816900623
0.8395671431756966
0.6815595374026537
0.3249588147971185
0.2330449556162407
0.3692348456659861
0.4271459995629975
0.46254461305479644
0.4702179867420833
0.4831843383779738
0.486301028494439
0.4990453913586969
0.5001825486062319
0.5058135390279691
0.5218880274863849
0.5367711258004546
0.5595689762083983
0.5690277830726225
0.5879490333639378
0.6002220433076974
0.6221648178061315
0.6181875726470956
0.6295875879259677
0.6288779309004005
0.6277926983332173
0.6198334684595641
0.6176781469195236
0.5967238465439937
0.5839609170186895
0.557992453428741
0.540139912268985
0.5247962386496969
0.5141145759847966
0.4970492182813372
0.48799039786225934
0.4925842398355086
0.4848243425764416
0.48396934134746317
0.4834839657689688
0.48528418054743866
0.48769917876019264
0.49809870222862634
0.49266876752189975
0.5133131486856188
0.5060039804127842
0.522576355308155
0.5204810759791718
0.5382411262251641
0.5160822193355317
0.5180107616451115
0.5102104779567459
0.5095417467673825
0.4939095962942259
0.49147665197186036
0.47983059199707734
0.48758559643740346
0.48199081635455776
0.48147750549221435
0.4736896125877772
0.4764090770658206
0.4839267564227668
0.4772802403534298
0.47691083416775504
0.4709873769905431
0.48176362950076806
0.47851980336963085
0.46075851702093573
0.47323866897627365
0.6011560639971629
0.7516793910392935
0.8062950275089827
0.5951156652780265
0.276402921817127
0.26897803306502854
0.38556207738395976
0.445048735470636
0.48337157761787986
0.47885003534996773
0.49855547305913933
0.4998088984735956
0.5029500858271589
0.5124548120418185
0.519386029659714
0.5278160385075413
0.5424817074424826
0.5609535823952663
0.569347902541425
0.5943123012185288
0.6024768125272846
0.6234820874888689
0.6299083357538936
0.6429421935780355
0.6348288963095886
0.6418770796454899
0.6236396619188785
0.6363801266275285
0.6081207979526992
0.5962229610567993
0.5625074128122239
0.552429044797204
0.5195514479110075
0.5227814940130726
0.5009900368014997
0.5056009600055076
0.4919824155155072
0.49484785136938514
0.48619609511139633
0.48842429377406377
0.49096814273218375
0.4957253841581095
0.5047235367893548
0.5043113324566528
0.5115761752460871
0.5193085188564168
0.5321646518967182
0.5277874657376679
0.5221409528286898
0.5018175556636765
0.5037311623010782
0.4943317693432882
0.5135288776557655
0.48604263771930734
0.4943606505443451
0.482179724154682
0.4896101431286627
0.4861676606086186
0.48922964800295227
0.48754991631404615
0.48649565925847493
0.48117780363280066
0.4933651098901487
0.4878549105550244
0.4834723313735531
0.48333289927166484
0.4675162177027558
0.5469734436069057
0.6650419554741799
0.8211602532908847
0.8647522375636161
0.7280376623892929
0.36617866193298676
0.2653368061906835
0.3750704747399229
0.43734696318160315
0.47283023038536676
0.4929547765725105
0.49528779034134784
0.5031071759051763
0.5014747384792695
0.5130173988863069
0.5155563840609853
0.5344740431300068
0.5438045811521623
0.5562903871114812
0.5655752261971432
0.589251471476428
0.6090056633225954
0.6175434708830674
0.6291676187125931
0.6418905243879035
0.6475001694218807
0.6499082057656833
0.6538599444717647
0.6390654666582775
0.6376882145190664
0.6077119398143613
0.5927537306514428
0.56012211006101
0.548746047006167
0.5228286513763448
0.5210201022960181
0.49973789942787644
0.5059979295617624
0.4891195573024981
0.4984800396850139
0.4848822524392992
0.4957430604979258
0.49161251896546343
0.49345390612192463
0.4921998535788184
0.5043791670349533
0.5049424068170517
0.5087036391545143
0.5226553715440561
0.529482577577261
0.5332125418960798
0.5179223744305477
0.5131627660937241
0.5002460929988002
0.5008738798712098
0.49972663604915385
0.4940574678363081
0.4782509341633817
0.4899340098342194
0.47703137855269134
0.48536391375557264
0.47565383989411963
0.49309186688616646
0.47897309665121623
0.48757650825680054
0.47631977723680147
0.48847219989809626
0.4843737084664778
0.48582427576667103
0.4523681081444611
0.5156694183756749
0.6533940801041076
0.8219470808905592
0.8433440081710575
0.6563237524061517
0.3181784979600549
0.24930847199709655
0.37837766942694834
0.4364399917002822
0.4823225940496407
0.47439380208534027
0.4987815151070733
0.496925698002214
0.5158506048815351
0.5077877159362675
0.5371763951135469
0.5299593436127406
0.5621869052568635
0.5621814017239288
0.5924168243588894
0.601430394700623
0.6321578819842602
0.6305957887722945
0.6481737886781375
0.6463056247864976
0.6505906991180584
0.6421056861229484
0.6403261464911417
0.6162723479067379
0.5955096028588795
0.5728112417568351
0.5488123862725508
0.529361765283719
0.5051999695772166
0.502531220391277
0.4976247215923997
0.49388381770951123
0.48942931643109394
0.49450463172679565
0.47813933518951474
0.48828329846764007
0.4859167496557367
0.49729112920555546
0.49159652922161123
0.5071432136371539
0.5023760862560257
0.5233284984318413
0.5266169410374413
0.5199583911123125
0.501119382168689
0.49670017341519773
0.48757655009280587
0.4947804549578663
0.4813816421767096
0.46907578647785486
0.47470569694314146
0.4762962169023533
0.48055032792661095
0.4666932785685883
0.47949480417467444
0.470401374896415
0.4823563049543528
0.4731139886579112
0.48033087530018853
0.46898659589230485
0.47258290069651976
0.44976204844984585
0.5262040676220647
0.6589710408214448
0.8148939291285917
0.7983235847402919
0.5864219775264774
0.2566335857555798
0.2643145172521334
0.37382941101197764
0.4496736335128803
0.47514425040937897
0.4894771101950912
0.4915228398874231
0.492450124864001
0.5014610307667888
0.503698707323313
0.5246503367994702
0.5267921486765047
0.5432132624786955
0.5448711721141813
0.5751721663317687
0.5826122337083013
0.6078308450070603
0.6175102198841598
0.6408348296441314
0.6378511780343066
0.6433234169578477
0.639843899456968
0.6466176651053709
0.6299336409535627
0.6313689715898415
0.6116476346864195
0.5994801503743238
0.5607799791547855
0.5335257866089178
0.5196697888930398
0.5187554815675275
0.5061035655302636
0.49762523982842277
0.4901214755432739
0.4878819534418315
0.4970872789338457
0.4964029214591106
0.4912759442215573
0.48146681041380857
0.49243797323976973
0.49334211639373055
0.5099195020598282
0.49736044400307017
0.5168908552952047
0.5165609238412726
0.5236032200133932
0.4999169526557033
0.5062332426191312
0.4831605714155141
0.49369953008884326
0.4837084208938913
0.47251703533219597
0.4681295380424281
0.4725057657529078
0.47165631969204486
0.4735433820893572
0.4606794028856293
0.4581439339419398
0.46207474235944856
0.4761882330217251
0.47555535065254284
0.46362741873009466
0.4598415775668797
0.447426364037854
0.4964303542090371
0.6450898512258981
0.8090287633362838
0.7517319544498446
0.40982549750194847
0.21299832743292363
0.3513885702878614
0.40577879328595506
0.4652308837219752
0.4673736070310758
0.4902573446897751
0.4809953480149748
0.5026400815576402
0.5036500064605971
0.5194941900976805
0.5214474825963076
0.5423017360247953
0.556093907491134
0.5785251451625422
0.5995180101089003
0.6211422676816116
0.6209185227795277
0.642218465063715
0.6588352065401886
0.6491109828269829
0.6520271101061599
0.6291596652814838
0.6377046352516179
0.589198326548181
0.5797672187610539
0.5519879785693347
0.5273836473059531
0.4964852401292091
0.505304319077738
0.496846400177308
0.495868487414337
0.4839924373536584
0.49038357643697533
0.48958272670082625
0.4875670932108987
0.5004282317668299
0.4904885942202287
0.5127762314630316
0.5085472901268753
0.5270345131894307
0.5320519276640676
0.5411659717336001
0.5228891049078453
0.5251708296470403
0.49841079086727874
0.5223134080917337
0.5060293302397276
0.5208537023068984
0.530064875938242
0.5680290721697905
0.6014632849458306
0.7515494947762544
0.9073432327094715
1.0
1.0
1.0
1.0
1.0
1.0
1.0
0.7747442587635691
0.39996808899882763
0.39219667398468355
0.3705594011768742
0.3442422373074092
0.32326984449899954
0.32297881686502156
0.2970890848971285
0.3157699308424894
0.30264037464321236
0.2925511969110728
0.2689239275573434
0.28753013288517215
0.2844633448510798
0.30513517365057474
0.29350814448261625
0.3278572211352072
0.3281821371701898
0.3515035619060153
0.3879415737449231
0.41565222088363285
0.4239420290998
0.44817390655675043
0.43992860901534947
0.4507903170595601
0.4532219102845212
0.4793189611948798
0.47185722129832464
0.4639191610465912
0.47506837659507484
0.4756860208836244
0.4779361764003628
0.46441860063000917
0.4723924681536132
0.46326991715461724
0.4778053551011607
0.47682472459442604
0.47259183117071457
0.47523338244541913
0.48710332767053854
0.4927989246310268
0.5141264522063693
0.5071189369720878
0.5197321061037181
0.5246724239108349
0.5620006219600376
0.5252642178946764
0.5324991640968085
0.5185912190035367
0.5058334138503008
0.5081349712481914
0.5018238428840771
0.5017961547676191
0.4850966667947129
0.5019595165493157
0.4966466868774721
0.5006188499637083
0.4967492571909443
0.4895234127533641
0.4965813173866823
0.5160692946893628
0.5061014539347385
0.4995133243336132
0.49835885912039124
0.6866457013318417
0.8900537077472217
0.96908311868388
0.6811908055005814
0.2832541158350153
0.26384860465570925
0.4058325115784179
0.45844820636236294
0.4991309327135068
0.499360998158677
0.5174572668748529
0.5195241133955831
0.5336259447075813
0.5340488917949475
0.5566973704736544
0.5740262712622497
0.5896061433562554
0.6191470623286284
0.6423329752208148
0.6639768976652991
0.6753375020277452
0.6964655353864866
0.7029980833896035
0.7128770880184307
0.6955400649591418
0.6993512261416833
0.6627169212334769
0.6410608211148225
0.5914579264438091
0.5661315770796652
0.530081670008859
0.5276143804599516
0.5129573967549027
0.5135030990401757
0.5018463759081652
0.500418800355467
0.49824205298513585
0.5064460653088724
0.5065912806228353
0.5111445868742035
0.5216139732572072
0.5383708917596592
0.5480212867453398
0.5245514055850895
0.5239578358770707
0.527075824878964
0.5203197935576915
0.4771037905676049
0.4875198130357523
0.4784385018710789
0.4877673081711816
0.46739616030168063
0.49098997666848465
0.4754234428273
0.48970568297237715
0.47680693238835137
0.4875823881396018
0.47562731821947973
0.4867166785110246
0.45638497733162636
0.4865991004314908
0.6131691263527627
0.819931730460457
0.8677064760491005
0.680713505773356
0.2925535368680452
0.2215479786390254
0.3718540274040655
0.4375285879899692
0.4899028756372987
0.4896452234549112
0.5153883690331884
0.5077138985775338
0.5355258294660744
0.5259594825428462
0.552475456965263
0.5469085816306367
0.5792931223226679
0.5903265804690461
0.6285621086584
0.6308527474862086
0.6619436795834753
0.6668030876433123
0.6924734612716741
0.6875133066439865
0.6887341868170427
0.673299216360687
0.6617691547209162
0.6295700568378229
0.601036493158082
0.5707189336223759
0.5449789839996548
0.5316808249104432
0.5155264597219439
0.5070707374881005
0.4849590031172544
0.4949911169968436
0.48807905723904205
0.48926390718390556
0.4733276651400457
0.4911758335465778
0.4882698640428747
0.5094370516807452
0.49189982802939164
0.5106623077502704
0.5273773410831204
0.525762022736685
0.4898023306326012
0.4893942866850581
0.4848471474307767
0.48757949342612383
0.4670965869892306
0.4695294838548129
0.47078701757552943
0.4695275559799758
0.4721519037372771
0.46560084715855776
0.47003582137243116
0.4698956064277244
0.4789105429148555
0.4641611217704796
0.4677441847930136
0.45020670525724993
0.4799287923815072
0.6045777640947132
0.8076907672370988
0.8461750284878496
0.5970243599151075
0.19616666567325117
0.2589617675294527
0.3918857775649838
0.4591000534426538
0.4690826223557245
0.48645905993161503
0.4947499103652249
0.508750626410576
0.5135927034956735
0.5318092196569377
0.5420080682982713
0.5444426084215166
0.5777424637541893
0.6028940133877768
0.6249083516685296
0.6434032592602236
0.6594513981587656
0.6538970868755882
0.6682682793055416
0.6762392211893927
0.6803834624842316
0.6509628053115376
0.6400771805375933
0.593447699775956
0.5829124773172604
0.5378431416536829
0.528789200074994
0.5043647367736425
0.5019207873052124
0.4926845174091731
0.4995509533283588
0.4803726402122873
0.48624904103482225
0.4817607469693438
0.4844573082552701
0.48466689543986713
0.4924806932201996
0.5075315117287434
0.5123785832057541
0.531732539592862
0.5264525917256887
0.5128414071580486
0.49775575469046895
0.4817145431052886
0.4786235078709507
0.486660576778782
0.4630425784956958
0.48667483110489307
0.4600456703238228
0.48032761486416853
0.46365746697619353
0.4845777791065749
0.46823291622140834
0.4890313063739276
0.47742851468236613
0.48336388592809154
0.4733443853189209
0.453762759310235
0.5158350949036192
0.7029780326510423
0.8541014165177365
0.8160533013305166
0.46013323052312105
0.1833752883305511
0.30178218704134735
0.40116223552218244
0.46268715121216947
0.47185496348248845
0.4924043610989979
0.49226823274912623
0.5176488350067163
0.5106372891443108
0.5388495479644482
0.5367811499518181
0.5636412457124552
0.5759973502523272
0.6174052058110127
0.621091845464252
0.6473231159735862
0.6691899043207554
0.6961995145237221
0.6934029378658296
0.6903131295403458
0.6888320094806352
0.6753002904625507
0.652941365710888
0.6176910987308191
0.5926808789594832
0.5716350988726877
0.5528154504966637
0.525934668672616
0.5236521316118492
0.5121811058134103
0.5069050607168248
0.5120850024365095
0.5048988963666924
0.4953665096171308
0.510152261761204
0.5053610586946754
0.5343309982502984
0.5083228228720869
0.5368326994044675
0.5346168270623567
0.5562745651495279
0.5234601126197351
0.529946475240113
0.5127021312609059
0.5147461010742976
0.5111141322085471
0.49993931751627396
0.5056676259109467
0.4998879692950278
0.49479935828171345
0.5088927139333238
0.511018702093305
0.5030420282894656
0.4989570415584921
0.5033144011593514
0.5102038490981439
0.488313206765683
0.5100759660606596
0.5047839409684126
0.5002717596125386
0.5607758368802918
0.7562635688270306
0.9225975212485793
0.9394196779738291
0.6481273126575892
0.26831414721304475
0.24417213737936594
0.38267462484682935
0.4692613480322292
0.4997595386030138
0.49357271948621956
0.5214141975654099
0.5280401374695867
0.5417607125413229
0.5494539014795408
0.5651809085313375
0.5722263196029143
0.5841747888196391
0.6228777946048252
0.6247360177080619
0.6634748987959747
0.6843909396093799
0.700492394633377
0.7133208594499296
0.7400199096490837
0.7401897427029009
0.741482269444193
0.7201342082938569
0.7127544092045798
0.6741534892700848
0.667948679359282
0.6093754667139012
0.5926254776965292
0.5540050683579789
0.5433403930999624
0.5390474747516235
0.5451282687413121
0.5163241268475596
0.5286532691520762
0.519860612819774
0.5145554545305464
0.5198717229215382
0.5219828916780282
0.5349833551182059
0.5178758528283243
0.5537743565066016
0.562193496112696
0.5678115548725128
0.5578362312455623
0.5509921981736783
0.5375661742469917
0.5427386387207656
0.5072206510034687
0.5327729709696041
0.5021753369314557
0.5079482939550813
0.5034258587107967
0.5061630945820027
0.5100543960164944
0.516013653891092
0.5052511398627529
0.515264640048607
0.5103737210665813
0.5075086946810288
0.5276749498451756
0.501835217294224
0.5176425761637866
0.49104348109523455
0.5761106416663142
0.7591927342917411
0.9897720236718346
1.0
0.8917648146870321
0.4346065932123171
0.16862604281018717
0.2602790435238737
0.39485266899984583
0.48129313822750436
0.5193065926313792
0.5183438151808917
0.5354987414097566
0.5415851573290205
0.570843297322315
0.5711485405943294
0.5832017475583611
0.5909843252583856
0.61601723863902
0.6273227280017052
0.6505295446348232
0.6809507251476028
0.7007298947561311
0.718174078523222
0.7258836223338083
0.7657615933503634
0.7613250072300716
0.7772611366819447
0.7565540330023334
0.775302392931796
0.7484408247599147
0.7337273636235511
0.6762764990556742
0.6538039887406855
0.6091323794504444
0.6021194546964288
0.5728196945302226
0.5674007267570251
0.5498033878735964
0.5486092384934219
0.5370320803682439
0.5544395872564298
0.5401290718477111
0.5472285305843938
0.5408794154751614
0.5563512274620053
0.5614843585448935
0.5674574361198218
0.5822825530560153
0.5944081378583708
0.6010045046450581
0.5832253748824284
0.5715835005491054
0.5493996415398721
0.5461737028161766
0.5474238990660675
0.5573280808842929
0.5285663313209616
0.5461005167877329
0.5223821522527085
0.5419403265725043
0.5041417704482412
0.5467808065474314
0.5310499735620697
0.524512457612428
0.5227970126099077
0.5363117142660474
0.5350689767481412
0.5293489311651584
0.5144252945621675
0.546168614466747
0.7079530976131843
0.9543720909106262
1.0
1.0
0.7100364631178575
0.23694412846464136
0.21650231461262032
0.37207268340702615
0.4740390893220904
0.5164172167650131
0.5492624065173676
0.5412023798820108
0.5642933254380802
0.5562446027326888
0.5710433644913765
0.5785784876571259
0.5953220332416793
0.603381330870648
0.6577518337535526
0.66545962665513
0.7076464479770129
0.7309703819419062
0.7562722931761419
0.7537105939522937
0.7686917094529152
0.7758453606290356
0.7666561625631914
0.7620271158441214
0.7394091516692016
0.7286809334592699
0.682350390936741
0.6465532695336217
0.6124797148318362
0.585208333085507
0.5390045516698398
0.545907387405536
0.5272111774895369
0.5427935007514801
0.5256190960822302
0.5312849166057411
0.5019450444844773
0.5215438959663932
0.517265530177011
0.5307782536618529
0.5349797839886282
0.546155704391787
0.5623210056181052
0.5899143700200289
0.5770913384033008
0.5610635935590935
0.5494263046437143
0.5351990135373083
0.5350301773918587
0.5224814089126932
0.505917062596599
0.4991679026436625
0.5121680934077715
0.5029063807376652
0.5150564423567585
0.49044300437616367
0.5080110012147285
0.5009682365301983
0.5146246511288038
0.493032410645172
0.5166188985073055
0.5001898789842689
0.517230931882104
0.4711755150082017
0.5713648708319112
0.7809370244696499
1.0
1.0
0.8870624797649374
0.4113151247703537
0.11927584539926461
0.21350386469795665
0.3541132318038976
0.46506429094245283
0.48583457211353387
0.515838385208403
0.5306991614262883
0.5453428945603711
0.5414807688722946
0.562482874815179
0.568469371031582
0.6024624156037285
0.5960775225215397
0.6416342465720529
