MLII
0.5
0.36510184810468094
0.5
0.634898151895319
1.0
1.0
1.0
0.8319860354257607
0.32582360396217325
0.38900389427402693
0.4632777229242467
0.44385220295981026
0.4407387464834369
0.43851298379822146
0.4601750250005356
0.461653104748666
0.47650059589171684
0.483159265674941
0.5
0.49801276662998706
0.5113628733563731
0.5029080357127876
0.5236728365184649
0.5257168319534374
0.5403884896988667
0.5314248591700795
0.5674490759476595
0.5715231894950431
0.5760200908411452
0.5671574018219115
0.5884348667656637
0.5950506281829117
0.6117461183891206
0.5993589322426396
0.6021800107230895
0.6109450817239146
0.6161475481416543
0.6001766030165723
0.6152726571209747
0.6351331750659892
0.6329562825254775
0.6345159983788038
0.6363768167704317
0.620946079331499
0.6010175168155564
0.5704423288966245
0.5458673141665277
0.52723164990732
0.5115239752282511
0.48876488254415473
0.48559904187210023
0.48314350368856473
0.4872850171377009
0.4791658376185837
0.4793372513301494
0.47527585885019163
0.4969909431948614
0.49472882376893423
0.49771178566098423
0.5138163518651925
0.5337516740430551
0.5284884683667108
0.5343803691582434
0.5242732774226739
0.5430017836634379
0.5429819237793378
0.520781638040489
0.5103735049174398
0.5245435560038382
0.5074234953828742
0.49633871516701317
0.4765052636871606
0.4902407871449904
0.4863037990497322
0.48334416561501276
0.4491285012007662
0.468829417294787
0.4783748717424518
0.47058399330244677
0.42713823501125125
0.43835894662669006
0.45690471326338117
0.4550456089976097
0.42047517805320656
0.4218037282215824
0.43295187301014904
0.4430900128354474
0.39501538672671915
0.420153961742359
0.4422672271771967
0.4634152250617219
0.4521612282612596
0.4698760856203652
0.5386333229980618
0.6200123953398482
0.6175625764911535
0.6662570735220945
0.6333063807530046
0.5996912500389431
0.5650907411945765
0.5273838974393987
0.47155711426511615
0.46637082964385623
0.43709379586591657
0.43477784336418185
0.45792217072730174
0.58955754138345
1.0
1.0
1.0
1.0
0.0
0.0
0.319028544642819
0.26936479943714386
0.30216545486302604
0.2878880306363301
0.26905514511272366
0.2661777163663823
0.29508130949050415
0.29670881267377813
0.3076476156298239
0.3424389517322256
0.38141435165843907
0.3663209899825818
0.387809750063668
0.4045432612643717
0.4416192413319989
0.45533090914857305
0.4543630923820875
0.47457892637392496
0.5327106842140237
0.5519184898115974
0.5502798026984828
0.582608991842433
0.6168993083768489
0.6437579575467145
0.6424453379940666
0.6309873624565088
0.6633437340888337
0.6948631295365748
0.6967666688472134
0.7258451303042459
0.7620231342510544
0.7915159394789602
0.7992424051932951
0.7777603083062489
0.7431581590059559
0.7023568112915853
0.6350297354521752
0.5668953363489515
0.5383783666402613
0.5462539910096773
0.5178885664021713
0.47081089466462
0.47533303342246513
0.48798193334889106
0.4689469818929247
0.44872329203426115
0.4822989422201626
0.50609005360457
0.520019495655574
0.5138617891004027
0.5293826011937245
0.5689262807645487
0.5607624587047353
0.5528007938293495
0.5569612013970427
0.5653780939089519
0.5743553122576185
0.550087808708575
0.5248815447162547
0.5401608802053766
0.5382038197392071
0.49339350548794103
0.4624336568091749
0.4688885867543379
0.4900507972108369
0.4560989878439334
0.43115341862093526
0.4273661506911514
0.44829452163949685
0.4408575839154862
0.3983886549116669
0.4067362219298404
0.4375800624235665
0.43780807019727525
0.3943478062472425
0.39728920786267136
0.40507870115337286
0.4530083291227339
0.4293795951320735
0.41532181398624984
0.423251503520431
0.4469147083830419
0.4412333786091964
0.4573249378191944
0.5131489632162329
0.5653801226673607
0.6007901914836868
0.6162459851035748
0.5940456249908446
0.5594346746210112
0.547123911108713
0.5324389234704723
0.4878106563703094
0.454167725576428
0.41950181722594876
0.41671314306456536
0.4730211572048625
0.6486532384657723
1.0
1.0
1.0
1.0
0.0
0.0
0.25007665335453433
0.22370527777643553
0.290446847156069
0.29168181761323214
0.2545829074733609
0.25958662811712746
0.3067136445936045
0.2758491281418206
0.2802091444949912
0.3101142091483074
0.35971590575788037
0.35018330774133144
0.35356214600713515
0.3798574662915597
0.4142116899198127
0.4408350475307933
0.460322191813104
0.4679488758616829
0.5003246159316439
0.5172472323931012
0.5227142451033412
0.5532081749219437
0.5864067531633539
0.5994710932568511
0.6066533545059709
0.6019272588871375
0.6177283215917126
0.6469245123205589
0.629425336306196
0.6300044382736993
0.669662238108802
0.7192326735962411
0.7395047585149825
0.7411992156838355
0.794486670703586
0.7899193975859206
0.7174425438350795
0.6548063809277858
0.5844823278847177
0.5692680137050574
0.5447149773932434
0.49938824203209853
0.4642723027210954
0.46795935146418766
0.46416040140697773
0.4450347365839645
0.4512586835806511
0.47447193235086466
0.49887188247138214
0.5070842239327792
0.5014971508502806
0.5247199132688511
0.554932869250309
0.5339073905553439
0.5359255991977662
0.5745522953879395
0.5978514100287425
0.5651544381682947
0.5407988931182197
0.5329698182198758
0.5632165997206774
0.5610442270501592
0.511305853450244
0.4890925563530438
0.5050267704419364
0.4833722916502011
0.4775669442663542
0.4561055359939717
0.4722756964115346
0.4597275847970261
0.43207204044024755
0.41909884614579235
0.44823766247536173
0.44809573279230275
0.4265966637798332
0.4165703408770075
0.4335005131508198
0.44546075074944974
0.4301312532393677
0.4064214185997038
0.42625763745060297
0.46894799077392946
0.45763689888026604
0.4315187247397511
0.4663728786555793
0.5169259562125273
0.5629228762334655
0.5861887558982872
0.6342634385728496
0.6472966502485956
0.5950417584973082
0.5520579731539045
0.5608308700242024
0.5249279127982047
0.4833992454708923
0.412563806523356
0.45214664959304046
0.469815051490803
0.586597990704447
0.8417551088479083
1.0
1.0
1.0
0.2613902462810261
0.0
0.20105417040241513
0.27142994283324007
0.2908999975449865
0.31836340360030263
0.3112461354028998
0.30611716134721234
0.3161817640346194
0.2946404917792677
0.3466732048758908
0.3705938135028945
0.3671536753839673
0.36842561320861733
0.3861148590964327
0.4125232515280657
0.4573215017049262
0.44566797998510144
0.47443381788265765
0.5078702970480345
0.5560535064991284
0.5505775459981732
0.5725422700353047
0.5879672082444306
0.6064596112577902
0.6107334135355916
0.6243889844740667
0.661032015558104
0.6698321619589215
0.639026956762678
0.6530986116187469
0.7018488739434708
0.7286256429429343
0.7507908046896455
0.777788869371355
0.783665398742248
0.7809124273828727
0.744234086198546
0.6717794358853052
0.6203205554856548
0.6066002062795832
0.539355369285057
0.5
0.502709889844162
0.5118585206756325
0.4866031671678209
0.47222475135394487
0.46662866810564785
0.5027448407966041
0.5198608581901328
0.510954227487048
0.5160288821288739
0.5592786244211057
0.5794658230898874
0.5674490759476595
0.5721401342926965
0.5988324933386474
0.5905632408031432
0.5983107016119232
0.5822939171597485
0.5783976134344515
0.5789369925731369
0.5575350100416865
0.5467617720230099
0.5437654902375508
0.5356397274923681
0.5172604222462633
0.49452885547745556
0.4863654238758226
0.4978158553279567
0.5075310042358055
0.4754911124151115
0.47412457757002546
0.49037907190250163
0.4922117734245207
0.4669444389367296
0.45904394482200966
0.4699440840728427
0.47244514790251735
0.46718679095506943
0.4446758433053528
0.46256035344063917
0.4698556672503839
0.45047928848341157
0.45054347146445933
0.4772131228507133
0.5283371280475314
0.5616400367014037
0.6081043761324465
0.6449909652096705
0.689778087366376
0.6211791189971171
0.587748772328083
0.5818118591245449
0.5402937020230506
0.4566570307668328
0.456593136494902
0.4707177510855039
0.5634322287622571
0.7125486279937002
1.0
1.0
1.0
1.0
0.0
0.0
0.33250822364345733
0.2884178704532719
0.3358420291084084
0.33503944854810996
0.3314199773216841
0.3395734062165415
0.34810736396976794
0.33436343513097166
0.3597347111776556
0.3857690004875464
0.4021736379951239
0.3873261429629299
0.4029589136917937
0.45113460221097357
0.47387390342250413
0.47622546568647683
0.5025539794257652
0.5219299077812551
0.5538425724947624
0.5585210211419428
0.58410706951182
0.6304295325525805
0.6441982562804238
0.6418412459446499
0.6524911764265584
0.6815082688510486
0.7011012774590805
0.6957945831081334
0.7054319391105188
0.7220978112780052
0.77612620773078
0.8008162871898428
0.8083924665716966
0.8217166971463097
0.8130655180640893
0.7450198429290309
0.6852586384350136
0.6241946105940623
0.6087896444964194
0.5748698351616507
0.5375033324843631
0.519012496440292
0.5194764231636044
0.5107395415561644
0.49616129055988256
0.5002137756322166
0.5256581220630678
0.5347337755515614
0.531784711174689
0.5377340704855466
0.5756848601108837
0.5921070207923164
0.5823145494632416
0.583756738605856
0.5900917414411915
0.6119311913099719
0.6091381107611537
0.5894962547734086
0.5943475632508887
0.6029975109841541
0.5909419514488234
0.5510392357431522
0.5449960989781885
0.5532136691286376
0.5529634902245002
0.5108976782785523
0.4984067849311041
0.5119068249921582
0.5106480991127843
0.48748474834055483
0.4798484625835343
0.4905263449194358
0.5144227360183009
0.4869308680876435
0.46936122566284694
0.47721789482289567
0.49122140823145866
0.47773963550464077
0.46989357466797854
0.4669668631580177
0.48861269698199755
0.4863455902626125
0.4715447699884951
0.48732867661845203
0.5247788007785916
0.5394530300382726
0.5549905671130017
0.6017933780953179
0.6689442700875673
0.6712385666488645
0.618139982369527
0.5823182047486645
0.6047061955995435
0.5508093714952251
0.4914879337081482
0.4808439238678061
0.5361299084959278
0.5672691013012224
0.6505440631263996
0.9221578757190805
1.0
1.0
1.0
0.7621668204434894
0.0
0.20647621520755094
0.3621899044819647
0.3079369881399482
0.3721102489879249
0.40893832582555056
0.35225967281037046
0.32224942500496284
0.33917818463483124
0.37369549952089937
0.3838814217116612
0.38580832694140343
0.39863081710397436
0.41827759592195024
0.4534744857716377
0.45409675845760217
0.47054553338917804
0.4988087496854906
0.5334793432927869
0.5315656322504465
0.5401130617646398
0.580030481091358
0.6051126699538616
0.6078826044527512
0.6126202971386217
0.6430530125177292
0.6845058095755516
0.6946101914308194
0.6848436910398643
0.7026516717330413
0.7455440707628409
0.7473663303776593
0.7482159821263664
0.7926168241894228
0.8644832605936447
0.8787568037026393
0.8297390582073018
0.7749388070216637
0.7415910031280208
0.6989624496663256
0.6393502717924886
0.5918745691489786
0.5665745724805034
0.5594790451235028
0.5280379070912581
0.5076938584793603
0.5205179592076323
0.5346405031531155
0.5288457260560475
0.5252467756444865
0.5546013657413706
0.5835058432268101
0.5826489465358423
0.5730809197738366
0.5956904349283505
0.610172525581364
0.5980517202365169
0.577223803463202
0.5835105387100368
0.5947833189202506
0.5930681839287525
0.5663981855468267
0.5534413974815197
0.5422515117486004
0.5523460117920724
0.5269195429363611
0.4919907081812319
0.4897394011740885
0.5125070591265903
0.4936791936889081
0.4788474930069439
0.47845044738646936
0.49821121341394364
0.4718989930095388
0.46171436672826427
0.4632452732751625
0.4848934854145253
0.47994095308963375
0.4677393518480965
0.4678713460832641
0.4836735151130833
0.4696070100796515
0.4727596299841199
0.46984406464741363
0.5044930628297265
0.5424932841000291
0.5771611597074024
0.6129961392694682
0.6549886594413846
0.6149936618088363
0.5638784751442502
0.5569344921836695
0.5600178364238231
0.5107481892660537
0.46272468925449106
0.4489291195554044
0.4999579347009601
0.5352526570860426
0.6537006768279948
1.0
1.0
1.0
1.0
0.10882081657710745
0.0
0.24019832162400384
0.27889707460004665
0.23813765648459456
0.34534746138250716
0.3655808238040571
0.32276042947879535
0.3134989376859927
0.3153250486350557
0.35226082409849463
0.3799817671026342
0.3852636175581134
0.3810724175799698
0.41559537732918705
0.44045564833461504
0.44993162624082317
0.46047897353685663
0.48637370597139745
0.4991616677237083
0.5008957001902862
0.5088399832979066
0.5376883927424301
0.5698029589266189
0.5738412565563612
0.570375365061694
0.602100326543418
0.6374669366582475
0.6479405555568217
0.6120458501433925
0.611076323769683
0.6528533780449893
0.6823464538736281
0.6898851811540587
0.7137753016013499
0.7792259451638495
0.8098408969322823
0.7599376678699019
0.7027863470661255
0.6582437225016727
0.6231613989852252
0.5815773940171447
0.5447993127756632
0.5163622427018736
0.4942705069004809
0.48607349880262757
0.46462893503110597
0.4950789843291113
0.518600478773718
0.5006967912596333
0.4782544208634413
0.515440300551872
0.5525389268917437
0.5708871980636704
0.5550561037888168
0.5513554876902187
0.5720438223459572
0.6073874833962656
0.589205267982855
0.5844801981405761
0.5885770702246667
0.5789229178013497
0.562733895706035
0.5438673176750235
0.5339975696402263
0.5449385197312969
0.5244828520367022
0.5126683010389492
0.5085373497344184
0.4993240276494723
0.4749048487755605
0.4712083814442066
0.4800228337434323
0.4843195170959901
0.46680221498724855
0.44125476530309077
0.4441758282606327
0.48582059259347077
0.48073387252068767
0.44803444281537236
0.4443434707523279
0.46759440550102027
0.4641395401960998
0.45855989086098914
0.44053382688400883
0.48189734312518295
0.5307997876057212
0.5566492675255381
0.5943838701411244
0.6406229776604448
0.6543191505939667
0.6078730958007013
0.5785135619313181
0.5879077292870477
0.5629706040052878
0.4944808255017025
0.44191475671145153
0.47421131000339223
0.4999716407473011
0.5154738238373364
0.5646657059795037
0.8649523703144173
1.0
1.0
1.0
1.0
0.0
0.0
0.3304710608702396
0.2530411484816426
0.35787879002835465
0.37841519995125317
0.3181246185439325
0.2932177891204636
0.3563927377783901
0.3925543193149199
0.3781934423845071
0.35568111654769197
0.39634356622725
0.4322704400424966
0.45517905665823266
0.4323066933407579
0.46262899346209324
0.4840332190638611
0.5009055957882129
0.5176159175378199
0.5425088352350128
0.5572559534031075
0.5820514930415468
0.5722706130653169
0.5952408764971152
0.6374673437440677
0.6390519824734395
0.6069412302191441
0.6104617001380476
0.6460174808025572
0.6555117822312703
0.6587679197039347
0.6546721316045435
0.7004227333287044
0.7708533165482073
0.796767866861796
0.7911986670652826
0.7584086227076405
0.7312019657389008
0.6591360818780831
0.5949371102546996
0.5802304682814585
0.5521233100186904
0.522523401132448
0.49816826659080815
0.4846940067986291
0.5186625227107993
0.5225502463395706
0.48888074432400314
0.4875500113710305
0.525962709394574
0.552541765097325
0.5607222625045915
0.5684568127358129
0.5863837352901851
0.6051630691921699
0.5975397289986988
0.5912729947738685
0.6227542910029347
0.626770666395919
0.5999429934474729
0.578839174730813
0.5831841956459047
0.5910445261284725
0.577144345650043
0.5261592649446503
0.5226185619027884
0.5342769816570813
0.49869302818788075
0.5001321741977838
0.5023731663384801
0.5152589141441014
0.5121214677252913
0.4827830538845118
0.4651849141239378
0.499902180670718
0.5080105010648123
0.4767639602902226
0.4812937264591331
0.4883707200284775
0.48597760048183963
0.4612826461024121
0.46001152520322375
0.47945215207295294
0.506491293491725
0.4617485873279564
0.49945880439810475
0.5575216982972214
0.6121330188924758
0.658501023642579
0.6585023754404375
0.6008755109242861
0.6134552598274305
0.5908983972702374
0.5380692753727007
0.48136728645648963
0.4957687773392509
0.47137249135671516
0.4842846662431815
0.5092908076629363
0.6677199388429397
1.0
1.0
1.0
1.0
0.12539821407411672
0.0
0.3122156421951503
0.3488549483398869
0.38627994979017105
0.3430167990678347
0.3371715058743992
0.3288757415939326
0.3873266972678701
0.3606655984521445
0.35937110016138596
0.3769984671734558
0.42616175784476457
0.4189662323521315
0.4325654589106243
0.42877617506603416
0.4830731544682624
0.49860557121386007
0.5061735127245219
0.5056360537488149
0.5590649082107406
0.5739116548146039
0.5803426888047312
0.5810142769863725
0.6294577543758324
0.6379975766209196
0.6456017183409045
0.6359283549082633
0.6625821639973413
0.687458354330774
0.6886782247067612
0.7088672663042906
0.7636162695305337
0.8120399096183052
0.819949601646166
0.793082909721846
0.7592070385487226
0.7297786769403719
0.6758151579264045
0.6137657586931397
0.5853552478767543
0.5711193405824414
0.5578027893515228
0.531692861614274
0.518682058104982
0.5204127788585524
0.5431855559451113
0.5347169026823042
0.5160629620278091
0.5487060465872362
0.5865373337797487
0.5675939451033662
0.5797967507374594
0.5849398424571307
0.5999041683750217
0.5979096155316134
0.6081472397532559
0.6116578167614237
0.6350212391549094
0.607484804197986
0.5879874607330757
0.5808664708513317
0.5930010204997701
0.5744645978309946
0.5330916599194114
0.5277787427320606
0.5491884176020425
0.5370835668587247
0.5190562171451124
0.5045145646916785
0.5188982168904787
0.51296452791195
0.5053298897605829
0.4856961643209279
0.5062539256181714
0.521129004479249
0.4935869781672639
0.4817486447210376
0.49189301899647503
0.4996125478478565
0.4915134064462032
0.4854684167982336
0.49464832292198835
0.5231986414922716
0.5351268107027052
0.5405312508358654
0.6026031413812293
0.6503188867092409
0.678454766864174
0.6596148276082144
0.6140490284180526
0.6137513058356071
0.6201417401067119
0.549590274351938
0.49279005070802756
0.498324074616782
0.5186584212662388
0.5023256535919504
0.5453609502452113
0.6527926972310223
1.0
1.0
1.0
1.0
0.0
0.22249669058613927
0.421280436861481
0.3567653105530106
0.4153451487377439
0.395250548732531
0.36918592725128824
0.3745752956820919
0.41294798619488454
0.4107930583415709
0.39276394570111123
0.42313244360141117
0.44346471659324943
0.4564872605538962
0.47095258996841355
0.47749002301649623
0.5190763448958574
0.5427301968042417
0.545018640790964
0.5470973073732268
0.587494148151136
0.6088504835059807
0.612156175571901
0.6319905995503045
0.6552494387628559
0.6658987694201582
0.6704848776946406
0.6650890665862387
0.6958200916388466
0.7246408166349084
0.7362282076487401
0.7579692001358819
0.817738323684504
0.8587670476565437
0.8709907258679893
0.8101686777449411
0.7712877032344844
0.7523104578447695
0.7246080353756119
0.6380915446921356
0.6093104811570691
0.6048919967875014
0.5905132780433534
0.5543897519976432
0.5481299743566986
0.5533208694088899
0.5653673763460911
0.5485626527936327
0.5447907551037809
0.5808703561878589
0.6166558626440926
0.6115005729629871
0.6063151606274682
0.6375523843445583
0.6489889807340632
0.641265802596921
0.6322571577794703
0.6209664920405686
0.6410674738031885
0.6320975711698085
0.6049855734467868
0.5876008402043118
0.6181245096039851
0.5932453440283824
0.5662330770671562
0.5513075568469044
0.5647571375365066
0.5669436606348744
0.5547388883517034
0.5329282273486287
0.5327985913142712
0.5376305749842432
0.5032013495512597
0.48813886152625613
0.513851331402033
0.5085827721213645
0.5030732401792027
0.49466689665057595
0.49656311107208745
0.5124735997621743
0.51079650573879
0.4859245581517587
0.5063519004601708
0.5083471792051036
0.504167156374207
0.5034659215732614
0.5349142488993694
0.573527972103048
0.6033969429712794
0.6288496712613253
0.6592696519409207
0.6714352736760434
0.644462330032047
0.601322311789888
0.6027922268620511
0.5486902659055414
0.5196795332685695
0.4948358274104363
0.5126515089854646
0.5160379818991164
0.6266980047739074
0.9513937096601588
1.0
1.0
1.0
0.12593883224969366
0.0
0.36648952686213077
0.3245140768345966
0.33811572665120565
0.38633361373091163
0.37481879833579546
0.34551513265904843
0.3660484572319831
0.3612083578091664
0.3734533586784729
0.39865408446078177
0.4176178728985754
0.4174966793618465
0.4380189729304476
0.4358953140359224
0.46665654630036296
0.462991370916823
0.48971185933219863
0.5155485108989946
0.549933560919893
0.5485806052434443
0.5646691697227681
0.596228938264501
0.617246175212826
0.62071776788666
0.6212677799161048
0.6319754177755803
0.6595599488626471
0.6564882519135904
0.6446293365417974
0.6568913611221114
0.6936811185318521
0.7058112811914483
0.7057015300859464
0.731846470431057
0.7943499311149038
0.7931026538293183
0.7480164979211266
0.6926867807520637
0.6759435940615928
0.6453440123641502
0.5828338721512838
0.5379550425567883
0.5372648366472923
0.5407592539942194
0.523233928718751
0.5087708201373484
0.5159967267721874
0.5320862038592955
0.5573998354309089
0.5463067046813326
0.5628429937433721
0.5936832858838599
0.5970728620469642
0.6029742176494156
0.6276972316140349
0.6241946203538777
0.6309547364166996
0.6163576516417439
0.5943584579532845
0.604417838343957
0.5948325399277581
0.5774630572866799
0.5696595416589538
0.5739623608366918
0.5540112225655003
0.5301540283448515
0.5093597803866494
0.5273262498450293
0.5339020163349864
0.4912022685183424
0.48099823036275346
0.5023118269638479
0.5159182473467256
0.4998321847722499
0.47589930680201
0.4716441900787521
0.49951730802855965
0.4978360333900283
0.4557118061304143
0.47705605353378544
0.4865806388552666
0.48708416622355977
0.4679012838442443
0.4730114492756769
0.4969904299162623
0.5353717140400758
0.5656083339097826
0.5909619747777204
0.6395608914498602
0.6627609929218461
0.6091603533279344
0.57971465733459
0.6048785099789274
0.573351855044512
0.5111650314865058
0.46448227041731416
0.49198448457346383
0.5172063929091146
0.5667362144789904
0.6643934588678839
1.0
1.0
1.0
1.0
0.0
0.056385551366183416
0.41893800392654834
0.3283835399331605
0.37622992831509394
0.3841739745869546
0.3797845572603122
0.3681003918564651
0.3749984603031037
0.3935038560925565
0.4101233555060417
0.41816902925449
0.4266172720414797
0.46733619335815824
0.47165410863609997
0.47351058377338406
0.4683096629422
0.5027337328822837
0.5460716115823454
0.5447309748354869
0.5400101446763664
0.5530690324266935
0.5991001868378538
0.6101364401915006
0.6082643828401072
0.6156420186750848
0.6106620202519688
0.6169230657767435
0.6166966368225026
0.6251024190517693
0.6417356590872518
0.6569244329269026
0.6749187015790625
0.7042852311092446
0.7678015143059715
0.7754933412911346
0.7236238051656972
0.6726702813325585
0.643741630657131
0.623065437119222
0.5813950504482014
0.5259101075229844
0.5019362232009998
0.5149741877044324
0.5035062459795083
0.4820289211601064
0.5075191616786456
0.5145920856309153
0.5281817242470236
0.5307388342256123
0.5527495556649443
0.5649607041914554
0.5805188385263815
0.5785368590816673
0.5811055221140604
0.602439908622625
0.6184761558949535
0.5905364455158189
0.5801198506081302
0.5883884425378129
0.5928660712987655
0.5358641849215087
0.5190365651594956
0.504810498663149
0.533415353519127
0.524019319748146
0.49362819402783753
0.4894653753519703
0.5069052001602055
0.5024741191316802
0.470845491495128
0.48004326836207784
0.4894538521753347
0.46932269739728943
0.4655206501253196
0.46147039834515713
0.4840726017005414
0.48053460803081405
0.4649334814080898
0.4627789939373234
0.4795506137689548
0.488408588065777
0.4862195364280283
0.50301250881355
0.5491348528371269
0.5965760594424712
0.6226768658570419
0.627801261446438
0.6131313701916035
0.5788698510879071
0.5829318564609257
0.5317844507236047
0.4753239012957483
0.46140043120141827
0.49440516504757365
0.4820123482462253
0.5701335518934342
0.8364388442349229
1.0
1.0
1.0
0.1772300757937308
0.0
0.27674373366264027
0.26569064159855366
0.34270525862890366
0.3677947132382885
0.35280661026894966
0.3138582972989844
0.35118379347652284
0.35250961251620494
0.3637842558622328
0.35588129747287195
0.3980110466088636
0.4103399697407264
0.4151807557407313
0.41217621321236464
0.4404993616347374
0.4701557414040772
0.4919784675341935
0.4935171664801922
0.5072402117672145
0.5322951436213096
0.5627858803309242
0.543832912487715
0.5751380874007307
0.5983308859700835
0.5970256255194826
0.5821394316456192
0.5736784643491438
0.5992710716179254
0.6303070553730624
0.6112759188569674
0.61752920765745
0.6599226078492053
0.7196122243098071
0.7263476206599924
0.7117033845150511
0.6937700447199161
0.6639535108319942
0.6269306008295893
0.5748885177042876
0.5254073059753788
0.525244474283087
0.5018072405315944
0.4652624881824859
0.4764143621483921
0.4920968299750032
0.49301445798882054
0.4912536778415455
0.49325395786789483
0.5291492688510164
0.5489873742763274
0.5383124027996881
0.5365505127224738
0.5798899186323716
0.5795496721386153
0.5795127067062001
0.5676365718822599
0.5708061408426663
0.5836593732897108
0.5709150336225444
0.5391598236491044
0.547232284601818
0.5433826730637877
0.5269441751117392
0.5039621062234281
0.5051275399026017
0.49737724885073586
0.5067570636041793
0.47942923518226266
0.4704184212029766
0.4742748797092222
0.46358548746085726
0.44562967897836236
0.45879759797563563
0.4589410930423588
0.478058803268511
0.45805016459634784
0.44562488455274296
0.46501386996940725
0.4866624232461293
0.4568205064718381
0.45519116233916784
0.4613203413412039
0.483696101882788
0.46456929786544404
0.4822503460507849
0.5066634338100037
0.5623907440791308
0.5896498241462813
0.6188746286474509
0.6116087482012128
0.5949714923238655
0.5709145155880291
0.5454619688850664
0.4878998632712692
0.4886898807956455
0.4885033254217577
0.4937875731598311
0.5061033290387664
0.6120878286990632
0.9983007643451639
1.0
1.0
1.0
0.1446847297160765
0.0
0.3429544659464172
0.31936239957556734
0.3264291857977448
0.38819075105831724
0.36325869923911025
0.32602393611261127
0.3526709395302031
0.3437961287477832
0.35773796662455704
0.3658835512338584
0.39986755203975577
0.4010737413215081
0.4112963720925798
0.4179914164682902
0.45204482740544877
0.4629441017212638
0.4689179979292488
0.4909480479031201
0.5209571361428171
0.5373982095470499
0.5457432777290552
0.5676351636919239
0.5898249454614488
0.611525309886576
0.6175088574131433
0.6092488351974806
0.6366939566523843
0.6571582611331899
0.6659176661534632
0.6707819721149266
0.6874683816438253
0.7229803975766951
0.7624064723152143
0.789904270782228
0.8025750774729452
0.792479289384765
0.7452309626562377
0.6585057295226646
0.6066063570040431
0.5746181692417225
0.542265987047421
0.5201446122239649
0.507450654234876
0.5171961310470274
0.5256786892721549
0.5118234645272636
0.5180511371177466
0.5489140459476098
0.5602369083226163
0.5639579543016764
0.5751965822621614
0.5796598854466868
0.6100444358353391
0.5971033480267306
0.5835468523890383
0.5920917327843587
0.5967720280829303
0.5786161170000422
0.5684106965996719
0.5595042044254455
0.5691892185284584
0.5528834310157912
0.5180719160447043
0.5241923214182348
0.525448908200434
0.5252244092311188
0.5034465395457676
0.49194083451694093
0.49233026977167105
0.4951079214778627
0.49030772001713246
0.4729894877913945
0.4897229233962749
0.4886623246211664
0.46875602809939976
0.4648731819256229
0.46379889528979434
0.475379272551267
0.47495342409270325
0.4595520144142002
0.4654092045213066
0.48751336917551785
0.48155179253601377
0.4746232509764597
0.4893425391082835
0.536706534390319
0.5556687811572567
0.5917879293534887
0.6021044922904188
0.5886185655428053
0.5524394938816833
0.536065226032644
0.4894601683968278
0.48141140538339683
0.46924470364241133
0.4788140367478827
0.48228623591948094
0.5785852454168487
0.8916788307338454
1.0
1.0
1.0
0.3978914093782887
0.0
0.25227592994465464
0.3324648537672707
0.30961981965257834
0.3665982650125714
0.36330681129894815
0.3231543997301579
0.349871670874479
0.3303312047589615
0.32808988930644156
0.34835459072330577
0.37992121414324
0.38619774965482784
0.3976051589261383
0.4008988626566454
0.4355053738880021
0.45947610878838396
0.4604113684976562
0.4554011209851601
0.49360377343474393
0.5061784211020018
0.5122172430492715
0.5267585523256397
0.5640709143906951
0.5822856839967543
0.5895057431956546
0.5824052315381171
0.5835349248572708
0.6020269574071833
0.6149783425004627
0.6107247864189732
0.6219930666579699
0.6571816914425723
0.6963863791033759
0.7316979139556127
0.7527387384234057
0.7395742900942384
0.7127418420337802
0.650682906578169
0.5851781648957703
0.580137260639489
0.5488634456129209
0.5175161986486326
0.4983823991347916
0.49208276362999187
0.5091347019591285
0.5143935090326097
0.5061233195943322
0.5070674043806551
0.5422896635985829
0.5527567191233216
0.5492497050709126
0.5583761114290882
0.5963909207554517
0.596009595244427
0.595605771645753
0.5925725991818713
0.6105349666521186
0.5959777833240044
0.5777930533043476
0.5741693599231252
0.5858906001126767
0.5624434965379392
0.5367384548369981
0.537772329759517
0.5253427905579656
0.5094595211065135
0.5026211334978533
0.4985894418862641
0.513461180996127
0.5244349443130204
0.4910904809738537
0.48116974441753085
0.4947819635771478
0.4986718236716259
0.4867709863602883
0.46938691529763077
0.47524960139297845
0.4992076050288616
0.49324593418799784
0.4703509561592896
0.46871565069868903
0.4941396831309303
0.5011614490170432
0.48533761233910877
0.4855853884905118
0.5177546270614515
0.5565323389538416
0.5837381369987822
0.6118554575987711
0.6558281642718399
0.612083027000917
0.5674116674729144
0.5656789971848039
0.5563666130826284
0.5033270327709645
0.4870149554065481
0.4906812632482411
0.501914487159878
0.5193370410866379
0.5870625798197263
0.762476476391245
1.0
1.0
1.0
0.9786700689211741
0.0
0.06240277202337845
0.35605412588182694
0.2863356206553843
0.3387138111737295
0.37799935627708914
0.34670694993428386
0.3505657749943931
0.348442233675624
0.3751822848558827
0.382747472639395
0.390871591650788
0.40675481089483567
0.42731746080839283
0.4462290161316094
0.451033106553847
0.46450382156583714
0.4978226338244509
0.5134411105752584
0.511879625696239
0.5172103622992527
0.5487537364663903
0.5772489139766085
0.585943609539318
0.5804604116696079
0.5899937017575397
0.6184262479272442
0.6312707925965901
0.6055257064312705
0.6055788798297281
0.6253208309685396
0.6544357627791137
0.6564694461617139
0.6811654099283599
0.7127479229603164
0.7552310693651411
0.746714347038774
0.6928328062555007
0.6621994153386747
0.64539316448545
0.5812147094038116
0.5572579961237212
0.5344094371268947
0.5229432374816043
0.5019327825836888
0.4976409146839912
0.5134646392009027
0.54713728209347
0.5322838388449254
0.5157109150860371
0.5380970323933006
0.5813743799122749
0.5866455533806922
0.592121611450362
0.5880770942345133
0.6017124582342405
0.6121194077789875
0.604566510317599
0.5838211050708932
0.6010518298235599
0.6078039129285059
0.5871409652966084
0.5646877128608622
0.5587772607081309
0.5470557235831222
0.5362601737234829
0.5089506902878478
0.5215144386116887
0.5277294409154643
0.49692083504817564
0.48066142492865005
0.49455006263717766
0.5081468853629817
0.49742874757146655
0.47151730567128497
0.46419588618044694
0.4800521532430933
0.48856690530070923
0.4740132143183806
0.47322516036529344
0.46995547324503584
0.47703884314762135
0.4718160775877112
0.48112402897811163
0.4930942178454057
0.5126031342342462
0.5178517436749634
0.5622031594941951
0.6277828609490311
0.6500325596142251
0.6014231781919412
0.5672090193836142
0.5757191467847436
0.5649185535617748
0.5180275758228368
0.48535357404470625
0.4851504097729354
0.5193635031785699
0.5358168400968478
0.65597210946312
0.9943786507311063
1.0
1.0
1.0
0.18880341233202708
0.0
0.2813742765307175
0.3036129854016698
0.32340123572226365
0.3920400955588026
0.40247948271714884
0.35075549775296316
0.35981103752984467
0.36135960069424133
0.40272150584339317
0.40731400109963783
0.4117473794583182
0.4232577580943747
0.4452434339163441
0.44498687120455616
0.453679200937421
0.47568724026397546
0.5055326339461588
0.513110015344912
0.5201932445522588
0.5360556284476242
0.5623854585914149
0.58207552400941
0.5735263138444527
0.5738901838480629
0.6096804973089684
0.6231257675122227
0.610093946005196
0.6094220185211479
0.6167521239481161
0.6267868181281997
0.6512619692259969
0.6694531165968459
0.7317933876782872
0.7548596941590491
0.7295090143572643
0.685067779831403
0.6518272864379866
0.6229943597622618
0.577299229706252
0.5193156980489226
0.5231561712315365
0.5388904247424589
0.5205548152311729
0.4883193102778331
0.49114149334934043
0.5248084394198334
0.5354968065771486
0.526052724432385
0.5349405929074325
0.5682139091201561
0.5930017271329271
0.5824949357589099
0.5825110841694308
0.6060599638313342
0.615622087571549
0.5977761795568536
0.5939289036409494
0.6015572956483102
0.60263210504046
0.5755580466397918
0.5499313617095261
0.5420668709301584
0.5453623481691092
0.5209291144348857
0.4972809553674479
0.49956405470965615
0.5151743458020601
0.5120537932867741
0.48843957824534023
0.484321781146006
0.49929744351709077
0.49795187464224683
0.48412716093080077
0.46997416677798476
0.4851562221046312
0.49743799631257407
0.47483368248518465
0.4622691619914031
0.47537598847991386
0.48732287007168973
0.5035939362654143
0.5148580769852715
0.546819241369456
0.6047015696025461
0.6295992763129522
0.6282671893848554
0.607658814775295
0.5891232585562802
0.5848910929479874
0.542134118850655
0.5220138597176828
0.49144579895720353
0.5000405865203436
0.4837045515175834
0.5058023605309494
0.5753206378143523
0.7258225999916498
1.0
1.0
1.0
1.0
0.0
0.0
0.40272022748266745
0.38391374329623607
0.3911242424080209
0.35151690625942206
0.3638857750564325
0.3867164243129809
0.3921037091277439
0.3916506815279669
0.40290922434655563
0.4199594327760254
0.4342603708497327
0.4142524455954858
0.4431054186170026
0.4821327773679447
0.4892768307864214
0.4867797816706477
0.5109852960515429
0.5309464965665598
0.549210513962598
0.5512774985242512
0.5578705567679891
0.5850413054645541
0.6146778185200835
0.6127458957415214
0.6082894070690046
0.622248497289928
0.6455795640265445
0.6477509222705347
0.6460034310253872
0.6753036001764292
0.7168257347765685
0.7538169406287445
0.7596878398064991
0.7541499643348892
0.735820926944322
0.6846827502245861
0.6317857021026928
0.6078783503125997
0.5870507053369539
0.5617758990890491
0.5314427160635445
0.5227933290587784
0.5402610145283724
0.5387712543900001
0.522532652643702
0.5285579080585885
0.5494966901857672
0.5635979514624717
0.5512643127301238
0.5642616525373014
0.5958881460594603
0.6043694828646362
0.5985930143398517
0.6001155917196236
0.606825751727422
0.6260194128607759
0.6082229187889976
0.5927856949857775
0.595274215203127
0.5908852832738989
0.5771867741357999
0.5605168558959801
0.5470482067824907
0.5580146373150392
0.5476405508781724
0.5205952513854556
0.5054073121862912
0.5370698525789566
0.533362640674102
0.5183905934496236
0.5058297485230597
0.5212473690372766
0.5159151502328799
0.5029031794966489
0.4932850624582672
0.506652133195842
0.5080070157104253
0.49928261885327146
0.4839412300097837
0.5035530385757054
0.5101675200138512
0.5015831669577959
0.4859198631163573
0.5017120124107415
0.5264512877528607
0.553028872350465
0.5529359470907887
0.5920015457142187
0.6435545469827592
0.6537475467559072
0.5931872886599173
0.593467885325836
0.5926167826947524
0.5624763719066652
0.5098133671717417
0.4893468181853633
0.5006659126231155
0.5291182346199788
0.5272196990350226
0.5843980100100107
0.7788908076551632
1.0
1.0
1.0
0.48423966854126554
0.0
0.3329960587726706
0.3851427876526595
0.34008747284780166
0.4218674404290656
0.4187118703332973
0.3591658790486229
0.37241258089244633
0.39560048359421207
0.40405772606816254
0.38797793910922385
0.41036019213035
0.4349375706543571
0.44946388497687934
0.441798574785994
0.45486882986276245
0.4730660280012381
0.5143699892503106
0.5192748173893558
0.521681436692411
0.5440663441236078
0.5551022645336702
0.5647756791579328
0.5869328903947496
0.6053827247612057
0.6357966439858553
0.6388168955536896
0.6330747027140002
0.6433368121115327
0.6729695653140689
0.6792829375965667
0.6768673498684935
0.7197867179586416
0.751703540396848
0.7958965630726306
0.796328857981444
0.7881329714958836
0.7726794678892159
0.7389984137305452
0.6676513371967909
0.6080744012442667
0.6049133509404807
0.576537563896206
0.5533725813676271
0.5225652806673583
0.5410678931312944
0.5387750695379196
0.5429516903254276
0.5307119037598854
0.550967969110755
0.5742153867668173
0.5724018009637265
0.5735535409204904
0.5927868155793934
0.594622285257494
0.6019967559001858
0.6007325125044257
0.5955549184342956
0.6127993495445474
0.6064008422769026
0.5840261044977282
0.5879589540227613
0.5917285886721851
0.5701651332332902
0.5429044495464358
0.5364660268049817
0.5454150917239028
0.5460492348851013
0.5299438008910199
0.5106955505562981
0.5075129722036191
0.5147500835449954
0.5040508926120831
0.49551990856904543
0.5140359296786083
0.5173476252360036
0.5011895549050622
0.4933797978936453
0.49609996287863706
0.5058684264207776
0.5012428084006049
0.48770163535522776
0.47785173449286555
0.5068984193764964
0.5045487683108815
0.5024521382853837
0.5134130849402482
0.5464017807485565
0.5700535236663562
0.5908974968854215
0.612669829778067
0.6418130718390387
0.6125455590691634
0.5708036474919653
0.5676361282486678
0.5502827335510767
0.506259920031302
0.48671542803215556
0.48485490504008827
0.5003952570855426
0.5486905474065764
0.6453483173418941
1.0
1.0
1.0
1.0
0.0
0.06703776233798733
0.43534422882353085
0.37407737909561334
0.38584833800035395
0.402536675206297
0.4019283259943839
0.3868976957549849
0.38207176907757506
0.3919064700391752
0.41723917583076736
0.4243763167277745
0.4308050319073883
0.44013835284647096
0.473515250241649
0.4862892638537309
0.4757814196681944
0.4953213823754378
0.5276756213381926
0.5317012661185566
0.5459510046484567
0.551307750431899
0.5706194085565762
0.6023982751058679
0.6093775639804722
0.6002395964261716
0.62205489215876
0.6438079648284672
0.6475433674641831
0.6342787463470471
0.6517459025427007
0.6766342676387699
0.7074884541316411
0.7296846032138908
0.7551233180762928
0.7736733960933275
0.7580426285714477
0.7000290272390712
0.6585826304463038
0.6389974523557326
0.6066519588992199
0.5735210209897765
0.5457370974806836
0.5473477095910041
0.5575348427864779
0.5409667467572261
0.5214367758988951
0.5483418818523775
0.5723508508349071
0.5664573682844869
0.569919904149635
0.5846187250157929
0.613335248804514
0.6248306824919
0.6003738031274894
0.6001175467535945
0.6217663390647138
0.6261973547857373
0.6020064520780369
0.5861865366998782
0.5941681072406555
0.6051701394472633
0.58261698949087
0.5595568395571229
0.5657360981190415
0.5606314974115443
0.5512697636093126
0.5304428963527806
0.5273298849494563
0.5430388117707049
0.5319357578071429
0.503684790134715
0.5141544201350475
0.5229383945535744
0.5147727964715195
0.5042775423395005
0.49782504159052976
0.5120259651000134
0.5173056657418221
0.4955335302069678
0.4903556870800888
0.509322027585905
0.522153412495727
0.5233303503738465
0.5427607252376191
0.5690570878862895
0.6093462455785839
0.6227612704982296
0.6146772665802088
0.5904834047324876
0.5933785339453111
0.5445975262445999
0.5137213046685634
0.5036364040556943
0.5206336612052371
0.5294790450456726
0.5718058129661082
0.7353038156869417
1.0
1.0
1.0
1.0
0.0
0.04523180626946024
0.3626877187299351
0.3324843617164817
0.38989289169082664
0.438503323304141
0.38475193563578136
0.37246430404581393
0.3952275012348047
0.4181010168568828
0.4160094495366259
0.4260761457967973
0.4432368388558552
0.46041375247086813
0.4556753995752656
0.46068716619419614
0.48321451370051555
0.5140692431118928
0.5043497685459709
0.507284552563285
0.5362827336082869
0.5708101134447506
0.5767686490640033
0.5696014062485732
0.5805478319731201
0.615628650755323
0.6127419782385981
0.6033634847008462
0.6132910442156676
0.6252356766848369
0.6384008780528254
0.6357382739588645
0.6476770279573685
0.694978663095039
0.7404192474275548
0.7293452271796241
0.7076489191398727
0.6863451038838619
0.6694460897024275
0.6077214616844306
0.5719627772786233
0.5509008127393352
0.5367595242995141
0.5144039621457118
0.4979488722400359
0.5040661395496361
0.5313411594418604
0.517164055702379
0.5159614162533327
0.515742579390328
0.5394919573241967
0.5676493843202995
0.5709943016380064
0.5668797109929313
0.5857441646630157
0.5887543521624166
0.5891245680445795
0.5700977842716392
0.5956416794910256
0.5965182108174689
0.5741115678028812
0.5602626714659302
0.5634705701991258
0.5552449505486916
0.542736327577469
0.5091308747874076
0.5083589061985789
0.5256257294180378
0.5085065617243582
0.4812158849599106
0.48336006091095574
0.48626539909473643
0.4871534894719297
0.48329226957678706
0.4623639286053226
0.4817516955142759
0.48607016171598805
0.46165378133968826
0.4714579114926899
0.48344152531884826
0.4792487830853248
0.4542316057901977
0.4548229068122274
0.47612964711840544
0.5015274494825526
0.48314445496178626
0.4724543229718961
0.5032678211541424
0.5465992536018198
0.5601302439002445
0.5868838238153975
0.5931529706776735
0.5823351117592237
0.5517093356861752
0.5297375910509758
0.5027812613079952
0.49691578294162453
0.4810893478817954
0.4799743787709144
0.5027793205873023
0.5947270467851444
0.7750963715070895
1.0
1.0
1.0
1.0
0.0
0.05083113539832444
0.3367923224937936
0.3367742455893873
0.37509299334317886
0.3753566508156206
0.3687523412153101
0.37491721914306153
0.3636052344901748
0.3726035494503838
0.3998623148133741
0.428953519481718
0.41110294128930286
0.4147756095219942
0.43260034987476975
0.467019321374942
0.4824998531128772
0.4866754539950868
0.4826498336071318
0.5135955360939765
0.5354787793461488
0.5336343694698471
0.5497069053303549
0.578903958154851
0.5859113759966903
0.5803333618905773
0.5858858465857317
0.5964301723268133
0.604360727131166
0.585067621728639
0.5939700466103115
0.6172483583471597
0.6575735555480641
0.6693046713905921
0.6915138362012911
0.7083587670519271
0.6897214244980683
0.6486702288727665
0.5976223672679432
0.5567979778196209
0.5380693776871553
0.5144929252091173
0.4895410467784712
0.48806400333314837
0.4973947568158974
0.49234457741726806
0.4966582085469492
0.5058620508061136
0.5316106557807183
0.5337179197957853
0.5328283599546503
0.5476457890552517
0.5728847956466885
0.582356368560098
0.5749854000285358
0.5604306045760796
0.5730718511807946
0.5872795906039505
0.5687368944227778
0.5467582061749741
0.5520837299128976
0.5427581767175441
0.5349310499110789
0.5101461842603707
0.5143299088229817
0.5092317498534061
0.49423082645252736
0.4639876602779286
0.4676084214582198
0.4809198806048113
0.4761509868115539
0.4744367270821311
0.4634740381543403
0.46682824405428186
0.47001380159712697
0.4578811698385824
0.4478590998128148
0.45876674831461123
0.46544805290748803
0.4455598935559455
0.44035423988217826
0.46016999756857213
0.479604105384404
0.46573366369673747
0.4797438072285466
0.5038269352979013
0.552181368285048
0.5795835590769063
0.5997925402421882
0.5791449016734594
0.5731053553211441
0.5500211020316093
0.5210872975110035
0.4873594810515504
0.47498250582704005
0.4698483987187848
0.478609367516395
0.49725076651163214
0.5939060098141915
0.8199174023779419
1.0
1.0
1.0
0.5624649246499136
0.0
0.20628979328697766
0.31915072052409393
0.3195861320525978
0.3632566129602234
0.35835689914324664
0.3398921190671187
0.3618171653857485
0.35573581054863
0.3493967283948391
0.3754154174658293
0.40272801105703093
0.41061790786574975
0.40988835380051974
0.41621272875256443
0.4456869702088727
0.46675165370967087
0.4635280114712429
0.473738229302996
0.5018630057040074
0.5211086886082757
0.5283750836533793
0.5308068811489108
0.5564602318670159
0.5758551814586603
0.586289079708127
0.5803435113531707
0.607320759960935
0.6261486855235415
0.6284822270524081
0.6249889592506935
0.653171404819871
0.6971700313922371
0.7264570595244588
0.7432950953710981
0.7441627638324684
0.7211416423492614
0.6747327165517205
0.6171773907873994
0.5758916656597121
0.5547048840349692
0.5413756211897065
0.5174762782496615
0.4912365596464019
0.49761431594299266
0.5069709462057319
0.48832729777645456
0.49228339432894347
0.5159266578469243
0.5333888147589599
0.5221077428474469
0.5280737367841408
0.533525051089728
0.5606522943649666
0.5680365150212121
0.5596893199838454
0.5634789504238276
0.5883282697051204
0.5662958120345933
0.545184363608447
0.5412776258710841
0.5478483184385381
0.5342491873049301
0.5070522384757764
0.49903907269706993
0.5096961618195138
0.5012771466539677
0.474036392464639
0.4684879610332988
0.4782764519623471
0.4752979342898115
0.46157595832665327
0.4475041387630399
0.45413750352688986
0.4673756974262579
0.4561169156241046
0.4313949948029376
0.45159644680277083
0.4783499223218815
0.45677434475257145
0.435692575700505
0.43941546799280823
0.4592634621651392
0.4642572813000939
0.4586138377700772
0.46866693824115374
0.4985940378937162
0.5302829761078416
0.5453957942558239
0.583076531907943
0.6232510184512361
0.5865144200098971
0.5467138694730013
0.5428381499217092
0.5273339638463149
0.4932564649289134
0.4650927807679193
0.4624258562032731
0.49316828074257407
0.5494723508043899
0.6322654371522511
1.0
1.0
1.0
1.0
0.0
0.0
0.38969711070673174
0.338900079198363
0.3409669810248371
0.3787393795197553
0.3757935139246033
0.3452830410294142
0.34367081623183554
0.3499735289336211
0.3781979008276589
0.39174073927852443
0.3910928580732
0.4000728328253622
0.42555384537213536
0.4418087965986933
0.452968019459147
0.45628582827531944
0.48912322729441093
0.5104725564091257
0.5240441161334125
0.5228569557113096
0.5534863201255135
0.5935132531897989
0.5887376201393121
0.5873820769850777
0.6134853640473249
0.6227339836455631
0.6334163802228455
0.6462326974445165
0.661218324247178
0.6952168672251474
0.7209107029598981
0.7367862962030302
0.7687965013275955
0.7929400409959761
0.7465264169388455
0.674122103342706
0.6348467319591269
0.6031917627978048
0.5676474117470409
0.5282568937387702
0.5018519457086237
0.5103464734091995
0.5186123417149756
0.5048321771936911
0.4977284202799629
0.5095064846248597
0.5385555833165517
0.5412755981648993
0.5321431645444392
0.5454819131652103
0.5720169600997975
0.5800164522033271
0.5695544810954795
0.579991482361291
0.5934479651308218
0.5809319319142225
0.5683013536230272
0.5589080713503101
0.5676021074666998
0.5599616982804122
0.5381674547644317
0.5288264947349608
0.5282784707311466
0.5332633305385142
0.5212789679710363
0.4890180241814882
0.49380187577193935
0.5028962922382344
0.4916950320199932
0.4701933290633737
0.4759376982965172
0.49459058869522865
0.48967976463955853
0.46876835892622604
0.4695971100033848
0.48241645094630314
0.47854816766388114
0.45998637230317546
0.46229669319310923
0.478036376900931
0.4786608152816384
0.4794708396736785
0.48410421267857034
0.5138324531144859
0.5285355302362359
0.5470789395009791
0.5710868322759735
0.6199140671118533
0.637004220151202
0.5822969720438533
0.5495301782250185
0.5699402138646601
0.5268205093961409
0.48276233368890253
0.4700255313855847
0.5029518973886199
0.5111854244193375
0.5580673963720881
0.7230255617791321
1.0
1.0
1.0
1.0
0.0
0.005067191516910352
0.3934494460500047
0.2843481427646305
0.3428409107001039
0.3922288808841917
0.3664784865140586
0.33472519488315144
0.3316290998265946
0.37074496478613844
0.3865568593552057
0.39508762398201647
0.39319309098443045
0.41972217641489085
0.45352568642190655
0.4537409347343176
0.46176795378027036
0.48267132993410494
0.5215447768200312
0.5274131861018537
0.5243701739454756
0.5403765645040053
0.5769342941303746
0.5916113820848469
0.6002092021659774
0.6037340324534328
0.6152176101447171
0.622809409131457
0.6167959807835015
0.6163781953018574
0.6375946418720588
0.6634981117561187
0.7046718781416036
0.7436866988996117
0.7563001514965182
0.7198071144753724
0.6692238956197294
0.6190961337237401
0.5711892843039863
0.5481444900573605
0.5261222988663314
0.4962325598399663
0.49002421990404804
0.49576331148294406
0.4868551186643179
0.47736679013609445
0.5007343462492369
0.5301469498359219
0.5138100896330291
0.5173184331627189
0.5396699939606119
0.5743511126870102
0.5901845320830408
0.5620237025823575
0.5546313507430134
0.583245196590518
0.5914735629709816
0.5669677263377759
0.5414101794862833
0.5483630287436583
0.5566845974360025
0.5177503568938696
0.5003049598346825
0.5073647090181577
0.5106794760436915
0.4910849774756623
0.4763951847221758
0.46910697688744774
0.47440224073929455
0.47263270800771984
0.4605621012657
0.4607153496009692
0.46961801956127636
0.45147979444123865
0.43473393348315065
0.4477655524974731
0.46487179347412033
0.4523027494092271
0.4333574588403094
0.4385941603701674
0.4734723214783668
0.4902337987062756
0.47918086955963063
0.49701861172355344
0.5640006400425395
0.6114033856754688
0.6275246087308504
0.5701010772900951
0.5529747317717291
0.5514141570109956
0.5034007052756642
0.4484074978416956
0.45166577864615354
0.4518808358022879
0.4592258319202851
0.49720321323331307
0.6534161474724528
1.0
1.0
1.0
1.0
0.0
0.0
0.2969353892276258
0.26362706979863293
0.33295676817813047
0.34223269400945555
0.3219219965553073
0.294682743302075
0.3446994584838806
0.3507159456546082
0.357503533376952
0.35893503222769185
0.392925006529815
0.39344782523059585
0.4106436359654092
0.3957828087209127
0.4351330050931789
0.46726173840465945
0.4715108134292859
0.45970107925394404
0.4835202712964235
0.5239934422684182
0.5452143324184319
0.5491141841048435
0.5590722420764933
0.5741631220871113
0.5793679819965504
0.5688304892896268
0.5775283053635286
0.6033855685153661
0.6135556981441302
0.6097839338590308
0.6343039082978063
0.6972120905096454
0.732604269314644
0.7016846120806777
0.6879413616476683
0.6560982733008923
0.6527996890377444
0.5864090808123089
0.53742629998994
0.5190542284910401
0.5054885089598091
0.4878154570207303
0.4894549216246339
0.47230965502792727
0.4732098491957665
0.4776785976421004
0.471969413506182
0.46972821149535965
0.5130405017404982
0.5205974356226275
0.5078959658955762
0.5218525148037755
0.5587822646243863
0.5871737114817667
0.5673821049559139
0.5560255810340298
0.5563078053922856
0.5696138321385773
0.5580497541841934
0.53379404965362
0.537378050545683
0.5286319805103127
0.510186617493813
0.4904895953317842
0.4876299512138865
0.4735369301885967
0.47024747983028153
0.4547231998566576
0.45304276222759643
0.47126465086075997
0.45607453344456167
0.4344420543318416
0.4441897608594868
0.4559988152279709
0.44621997643890954
0.4237068777806557
0.41335613429331525
0.44147158975146505
0.45388048734390746
0.4331065406887835
0.42003449067450804
0.43191758681398573
0.43902843842391626
0.45132909711808644
0.4524923103873359
0.4909190843090623
0.5479350981983705
0.5692505074363645
0.5868691284061677
0.5829276160395652
0.5491634252070805
0.5404784112615062
0.5079527981538415
0.4897461505603199
0.4499475283389377
0.4461190179159405
0.43205308570850587
0.4574690977814197
0.5373243585986918
0.7232546999093623
1.0
1.0
1.0
1.0
0.0
0.0
0.29534787521940875
0.24256440593092599
0.3049109264766088
0.31901709390513416
0.312506593305947
0.3098314719628411
0.309751958901985
0.29918357818414204
0.3266944280847135
0.34463525802577033
0.3558536377545504
0.3578451856163962
0.36897752289772545
0.3884053032676212
0.4131483476405949
0.4096682034623395
0.4224410118546443
0.45547805357985577
0.47710427938126276
0.4704038990058965
0.4896382256625042
0.5246165412701796
0.5480475975736743
0.5481908473270269
0.5494236495956141
0.5710153045177353
0.5950826157327377
0.5853732229173059
0.5890311993325785
0.6196959629491039
0.6536835802838377
0.6841334431834576
0.7177334473342897
0.7255304985421793
0.7086112800108528
0.6455998886818044
0.5865641111843758
0.5447850915400251
0.5124227271639489
0.49114654410944547
0.46816111602361177
0.450678920510389
0.4662196379070166
0.466067216669699
0.44199243253911324
0.45140855970751276
0.46250863193078845
0.484784996264517
0.47717477491241433
0.48656451698603753
0.521698044828448
0.5421216845235625
0.5321222777945602
0.5224360234723291
0.5344509417955152
0.5373217510577095
0.5220711869072711
0.5089978091691116
0.5088983169817386
0.513202202182519
0.4963455359764981
0.46374575587504896
0.4665641351436728
0.47296325314602905
0.45646932140280316
0.4365732066411071
0.4435814635658571
0.425264436427261
0.43519806400637895
0.4213842156820694
0.4162128810665795
0.43810940878227533
0.433645989547142
0.40348528876355366
0.4067303024347891
0.41587207777386725
0.426960842044806
0.4101115522558512
0.40169927055279936
0.40814506736497586
0.43316640620868724
0.4231100883895631
0.4134692122770464
0.44222071435166355
0.4760545345900544
0.49554805252671386
0.5242373566903517
0.5672133424180139
0.5785112790084225
0.5269934836513399
0.5146781870766592
0.4942569514362417
0.4861432406504499
0.4406657445418463
0.405333725359651
0.4174550405784176
0.44833876528021077
0.4800115705495003
0.5724737495404333
1.0
1.0
1.0
1.0
0.0
0.0
0.40080434066241943
0.26348069680730885
0.31963587444095654
0.33300719261257766
0.322783358328034
0.3048853443082719
0.30408019550050847
0.2895881085803488
0.3449582950743265
0.34748778618180803
0.33929603506217354
0.3480056112127421
0.3913671521476828
0.4041143847835064
0.4086020151986117
0.4203843258099518
0.4445270239664335
0.46907365674132534
0.4743598267260486
0.47918422518161546
0.5178450055930074
0.5558459015400644
0.558445848559251
0.5631052418438877
0.5796191736150388
0.6077172985999407
0.6265595432805195
0.6136766377563073
0.6255129791167648
0.6638523008049099
0.7005899349251676
0.732756869342826
0.7630208046329727
0.7703813495818628
0.7348003756711853
0.6667372456357308
0.6146678240719284
0.5821950308225234
0.552846898978929
0.49766480873096636
0.4801377820377725
0.4728674309597755
0.4663124638007887
0.47404129473800405
0.463405821791251
0.48031432735026314
0.5155491917040581
0.5043131452721707
0.5053949593737983
0.5337519108449996
0.5538554889480479
0.5464361564166371
0.540956667558612
0.5422226537274321
0.5735516803843916
0.5519781093048406
0.534017915247435
0.5308748876051318
0.525942355802807
0.5286443782486359
0.5026519469149701
0.4827698539795918
0.49461490076832926
0.4876289384346341
0.459548641379376
0.4544526293821717
0.47397013975346025
0.46846196402956075
0.4464331503267024
0.4302316091326495
0.43357098406705746
0.4455873928867756
0.43816096907697466
0.4218495673556105
0.4341366114558676
0.4405407229458572
0.4361521825475224
0.4237812075558735
0.4221663267293089
0.4424590433586729
0.44933941016043094
0.4330566084033244
0.4809401229951156
0.5260247611998958
0.5612961549857669
0.5707654269970149
0.5901647470976948
0.5534900099468223
0.5562849851177267
0.5329884949603555
0.4952631229010966
0.4688931574301309
0.46213857587614376
0.4409677489064391
0.44717602534780737
0.47785246780850177
0.5962161532242088
1.0
1.0
1.0
1.0
0.0
0.0
0.336855120202177
0.2870733704328613
0.32731017213549396
0.31598945624759306
0.29854700631796094
0.2921549960501811
0.3211583450029572
0.31257317987153754
0.3244005575349698
0.350822596869215
0.3682776098369761
0.3650318122839018
0.385790319915412
0.4081754201101274
0.4290945817026617
0.4366196120637171
0.4513316686451348
0.4735051284767601
0.5031418248586534
0.5119439555281992
0.5366805908138861
0.5506368053155608
0.5704107010969388
0.580019667726529
0.5856267901452155
0.5866757723710808
0.6229685014174906
0.60428524530372
0.6053467648670412
0.646082568370442
0.6973994862565629
0.7326239899135256
0.7320630804993341
0.7092798094171415
0.6851658379563735
0.6479372426702797
0.5782269464288139
0.5211675928506917
0.5208328792702617
0.5070844303440167
0.45899677749526935
0.45010683084529113
0.46610181935912764
0.4747297879242701
0.46839609281261974
0.44610108187870184
0.47226037261602355
0.507915873795272
0.5130950713129805
0.5158805754268949
0.5307468448020484
0.5464204344348685
0.5605905100881013
0.5590319584762717
0.5523525256818125
0.5627618418451503
0.5597075579278418
0.5345724408843819
0.538086767412793
0.5442388579637903
0.5132087428533627
0.48851807947944625
0.4856499496311836
0.5029513912200492
0.5010363332851259
0.4647791547357964
0.423883554549726
0.4510457022730005
0.46781936621933856
0.45561179632729115
0.42088919011222287
0.4198611360537881
0.4421819734180693
0.43555539659267284
0.41862044752906025
0.4193702324120562
0.4360790009821776
0.4309088895773975
0.4060986518648817
0.42296514383408657
0.44601821064641367
0.4512841551437239
0.4417135603933479
0.48085857148931066
0.5316064210161144
0.5659208653812904
0.5777185482275423
0.5796298373469233
0.5662362671991982
0.5733833429920814
0.5329458120752641
0.488635967753812
0.47107058130395096
0.448374668849549
0.440164015829029
0.4474686539102232
0.49325318744049146
0.6646286117009396
1.0
1.0
1.0
1.0
0.0
0.0
0.2908993843986676
0.25456691866362174
0.32826223717988906
0.33205341972527835
0.30963148319299005
0.316651915575277
0.35201549319838127
0.3314000432568919
0.3359862255021783
0.3521611868584745
0.38175319013519504
0.38643032218436646
0.39192619023398645
0.40107693445448495
0.4318867652244016
0.4550078359726665
0.46683135847415985
0.48547427112496366
0.5166622200359533
0.5170502260158336
0.537991569300458
0.5588275612186396
0.5927436305778403
0.5802837364960007
0.5668982594390253
0.5845602524602774
0.6106904078168567
0.610266095906926
0.6108990728363998
0.6269153813912148
0.69752046062334
0.7395843860026577
0.7273488933571564
0.6681678353029219
0.644150970017537
0.6203934030463623
0.5754155615005953
0.5305047304332522
0.49373009794801154
0.47756741868759345
0.46816007146827776
0.44720193104184736
0.46456508280983116
0.47605545415509465
0.4810349916289739
0.48514799736750264
0.4990800245747171
0.5332854919686787
0.5417715105474652
0.5165267611677112
0.5470852234566125
0.5666540332483789
0.5665500722330172
0.5564414262094719
0.5519580765917352
0.5544950376463492
0.5667832402756275
0.5408338034035866
0.5322402539186271
0.5287784150812631
0.5376404424472766
0.5035265058353277
0.48817155335324475
0.4947176945363613
0.4964993321579157
0.4592991477681343
0.4402578384173002
0.44900710491288065
0.4581403198421924
0.44595418178238705
0.419164335372181
0.4107342672441871
0.44130758006085513
0.42753780689335963
0.4069010936762839
0.41381940742660694
0.43023462661570433
0.4129054929657947
0.4077143900673178
0.4042808053064383
0.4183193700695787
0.4498699204417541
0.4598975964438933
0.46775996729547387
0.526070802066611
0.5716072276803917
0.5878045855545964
0.569479172303885
0.5375690424627493
0.5463499825105066
0.5291923929961232
0.4631460381995586
0.42068051628770586
0.42623459943010467
0.44458436377077304
0.43752483180513424
0.5258991703632014
0.7598317226577759
1.0
1.0
1.0
0.9299150596016206
0.0
0.0
0.24352931011338405
0.22678519609997191
0.31204614594674385
0.32012107642077725
0.2713999542784692
0.27886818664082763
0.309638299564314
0.31422504809709667
0.3117711920366534
0.3342586693316586
0.356843577724823
0.3584907372036038
0.3667073326399467
0.38612326213603954
0.4166613206348536
0.4233315919656892
0.42538476676522785
0.4585817090057618
0.48598550355023457
0.5096337774131258
0.5039234526661042
0.5148543591411698
0.5563569756128087
0.5548463184215288
0.5476888033037111
0.5582262902640652
0.5931452136888506
0.5980496016033291
0.6023782443688886
0.6093310728031612
0.6576264227178428
0.7139336461696267
0.7231211744282909
0.7116149542120735
0.6996942770196926
0.6689847097465939
0.6224145883979213
0.5586370586549748
0.5256271677449231
0.49952278650895154
0.4810136953117441
0.44935164679091544
0.44522621541861973
0.4573963078967426
0.4629415230136963
0.44546125204751225
0.4625118014061466
0.49521404723822326
0.4987216764397021
0.502321103696161
0.5052871543044467
0.5273971685439618
0.5478381296551231
0.5445417230924983
0.5282017656389593
0.554033353348913
0.5676595670134497
0.5304093095165453
0.5310946587100982
0.5247210047710075
0.5278330986778117
0.4966433030647573
0.47661659738506207
0.4809896290363235
0.49510306054914627
0.47992453772651833
0.4421969390267824
0.45053638647832284
0.4629635520507245
0.45285131056684513
0.4312782414636013
0.4262724155302225
0.4426614751483406
0.43747355956376915
0.4057193744959334
0.40545791114894697
0.4265141290918816
0.43031136713505386
0.41353388531843444
0.4069474144741566
0.4432783147304719
0.45369937396509197
0.4673076566928579
0.45417294076124604
0.48743253728841074
0.4968908355512512
0.5083870924051694
0.4997709535048139
0.5766886642920942
0.5645346652542914
0.514037190908643
0.4893289039131328
0.4702345406883059
0.42014256958884
0.39670036624354543
0.3678698274522164
0.396453973058887
0.445007826078454
0.5216667716386065
0.7828350862098754
1.0
1.0
1.0
0.42568457032372303
0.0
0.21345985881245083
0.31733999391598317
0.27768753555830067
0.2967922418731306
0.31766566237268423
0.29134645132000203
0.2968338886269891
0.28534003757333787
0.3212802887401365
0.340552166399521
0.35222640475936384
0.3362827896789128
0.37242049623319506
0.39709351813766347
0.4119516220965965
0.41724608398633
0.4426602864569145
0.4679488352845814
0.5027574126148338
0.49691730115142996
0.5123176734083292
0.5527900869122389
0.57839711691417
0.571771769481902
0.5911045971917638
0.6148760869014298
0.6419015598287587
0.6352041913110068
0.6527681931220635
0.6894929939491391
0.7586350036051381
0.7750692437962889
0.7803990358741126
0.769182242005889
0.7307396331287427
0.6848667515505642
0.6169592243768605
0.5486898495407813
0.5296430893614217
0.5055954373364967
0.47135090152310416
0.4625666743418225
0.47601508254220304
0.4786045527968315
0.4668518871430469
0.4777371299040406
0.504336826603694
0.5185367891144413
0.5204397332653741
0.5226206853464505
0.554202304969855
0.5613638112094915
0.5607934141797928
0.5519959393809388
0.5615672030651557
0.566314600353986
0.5453998896383969
0.5119187720545202
0.5343514598431267
0.544112039915362
0.5136271596522036
0.49096160611513195
0.47696673194442674
0.4761319985689215
0.4833977507181345
0.45008095575317525
0.43451549974413217
0.4596508246717397
0.4422247335562209
0.41559411740038293
0.4388131472985063
0.44418286429307735
0.4353526845581942
0.42464836646817183
0.41767257820811493
0.4285635316148402
0.44683633167623754
0.43682652932035165
0.40482351871288047
0.427184792426874
0.44981458034661304
0.43626063981248375
0.44236366503507407
0.48349115509623236
0.5306178106156814
0.5597372285914285
0.6013222518961162
0.5864884410049842
0.5549302824444122
0.5544959810435066
0.501944404343515
0.45384065834157006
0.4459045474432606
0.4462793695007455
0.44286878187526557
0.47632074560329674
0.6352813193659029
1.0
1.0
1.0
1.0
0.0
0.0
0.33792996729448566
0.25160557137730727
0.31063019494561817
0.3361586495299812
0.2615954916511062
0.26486743423456194
0.30654046895156956
0.30203120926188226
0.29974657811086114
0.3165138340025843
0.3678298268178913
0.35990422635375563
0.3588939679808547
0.3719844688167059
0.4194394105542908
0.4524692377000652
0.4319860866641713
0.451112341350986
0.5095348870751931
0.529552182165616
0.5196594017656376
0.5258084653296466
0.5832532669130155
0.6067602154627838
0.5955116035985977
0.5904955848174435
0.6325660843356815
0.6642691431674701
0.6563641673744312
0.6583850641407042
0.7173468617663555
0.7696815148760303
0.8010080176853884
0.7753168705403095
0.7460475618447884
0.7163727157015429
0.6626963447046158
0.5873426604371602
0.5560909056526375
0.5482975758725837
0.5217820506807664
0.4882810121638609
0.4736244205639327
0.49685473708689887
0.518215749203727
0.4989220187836951
0.4974400600738799
0.5409119449008164
0.570812664083636
0.5805232874003183
0.5694857112238587
0.5749167532007694
0.6058768247933627
0.608827490547028
0.5809287509805409
0.585059058839936
0.6071858294808321
0.5830965301112786
0.5541712231491376
0.5378700652793249
0.5463047309159994
0.5650167547227787
0.5024691033831203
0.48359871633925444
0.5058843706582435
0.4993282334422074
0.4850662082162591
0.4677753253675081
0.465140264512711
0.47536386063058833
0.4688574982846666
0.4671553829297797
0.4501285956958835
0.4669270432421716
0.43941491766526963
0.4461917908679376
0.45009239282657704
0.45537613535728233
0.46612416178908617
0.45275065723301433
0.460114351901055
0.47736863250954886
0.5022248850819606
0.524282673959323
0.5972198836888005
0.6584886849956405
0.627634177884582
0.5598311840775273
0.5604508450018562
0.58226416004844
0.5403478728037202
0.45843227728747243
0.42414766084662225
0.47154865520162215
0.5001722830275119
0.5168071753423673
0.726397455542571
1.0
1.0
1.0
1.0
0.0
0.0
0.32046424915682437
0.19080210869453168
0.3055619445291665
0.36043414131410406
0.2977293567116401
0.284672580634818
0.3234182314392061
0.34045728217478816
0.3399720951556761
0.3260937833270182
0.36400531010927184
0.4070371824025859
0.41071224754730806
0.3999904645434693
0.42874551280463313
0.46872760154790766
0.49538567478640605
0.4754472260394261
0.48419378418760967
0.5218560974263892
0.5737859930985232
0.5566811576733711
0.5621128014148773
0.5777268086607099
0.6092037904081016
0.5896272291053679
0.5869155392833925
0.5898466634543374
0.6062742527780054
0.6162780471221913
0.6340215750456684
0.6804970460837125
0.7456578819648152
0.7601460245947261
0.7318791374737034
0.7109374832010709
0.6755221241969908
0.6263972941372695
0.5705257821540985
0.5275914189353647
0.513917306000048
0.5067950231567021
0.48399513888018264
0.4534172725489777
0.4747749347312059
0.4910423055995977
0.48192945504574614
0.4782307261128236
0.5019732288364492
0.5212531072458624
0.5427746667236614
0.5367154943193342
0.5592806104283331
0.5887005935146348
0.5867696185546751
0.5765085059066982
0.599104311242167
0.608412131465109
0.5907064004722857
0.5527108216760672
0.5432996721765087
0.557727749574991
0.5654286015659591
0.5176603519437302
0.4811897084609494
0.4935650247188252
0.5136784606876448
0.4718657005322502
0.46730047116498746
0.45756099498856395
0.47142389514050487
0.4522632041218923
0.4666086575782786
0.4594386196351863
0.474957803174717
0.4431808078050145
0.43539116175203213
0.4351742085838753
0.4671320083548197
0.4460486580463058
0.42531615422649205
0.42500958254643423
0.4589396098457774
0.4589204270187137
0.47525523413588394
0.49569623449842304
0.5550661939203229
0.6133120157660923
0.6276985430365575
0.5862350497434355
0.5629761546682732
0.5525837511523771
0.5122561331482558
0.446693059235029
0.4422648202246746
0.44058090615571005
0.44966367408939273
0.4423836796048609
0.5793209767138308
0.9449914775191788
1.0
1.0
1.0
0.3479367838295613
0.0
0.1300811957142122
0.21427241823837107
0.24476339407952988
0.3257306197970851
0.3218083058051803
0.25783055035641067
0.30630754320729126
0.31230332245299663
0.3069787733373842
0.3138515256346207
0.35799100630781605
0.3689557002498476
0.3680325479448756
0.3843028237792768
0.43250456618811733
0.4634272494672252
0.4511683396528138
0.45435004241512356
0.4770780320037112
0.5151410146088272
0.5258919187144769
0.523663712753752
0.5390582671863413
0.5645043224639255
0.5733542630562717
0.5523370361277978
0.5687027664665484
0.5791771279749525
0.5823968936562482
0.5865230514882072
0.6158515165626621
0.6785575736888779
0.7503772607208503
0.7202411883967106
0.6812760990387345
0.6563369282233525
0.6295096866242482
0.5685086721324575
0.5020448827372379
0.4758356006277288
0.4871515530399546
0.45609000191728183
0.449599303153091
0.46277770856295836
0.47642563361469853
0.46534817487756597
0.479285910247006
0.4838326108927863
0.5132664004110667
0.5361604393807557
0.5395593630894613
0.5485956819925135
0.5816135528027926
0.59209710435851
0.5669852159065054
0.5593196421375088
0.5779645658224393
0.5755288767393303
0.5459579450955828
0.5264509555859352
0.5370007909022285
0.5418063686579748
0.5072183819191921
0.466060076353571
0.4895048692203822
0.4847184061587698
0.4610922022239663
0.45451806561096025
0.44946994883244723
0.4631782017291134
0.4554886120614836
0.43419103738666953
0.4338578624402123
0.4504884974685526
0.446240645826345
0.4228434553614561
0.4189776360323159
0.43578785008778026
0.44124181755476843
0.4360876082171169
0.4189439072875686
0.4301605394236625
0.44013480966681806
0.4645284952295488
0.48752023096405833
0.5615826135100942
0.6055583980901643
0.6187899816335453
0.5703061416163926
0.5628764934908583
0.5678994836741353
0.5245246136564865
0.4432200420448232
0.4284184981279943
0.4380662941075298
0.4563959184736331
0.4531888683558047
0.6021991622130387
0.9868913574737995
1.0
1.0
1.0
0.2033238012470891
0.0
0.2210159387116009
0.2306397712566805
0.29093146977807793
0.3366659342278956
0.33220079617140164
0.26151774198577143
0.3092786679081752
0.31118038225982314
0.32586395736998747
0.3092042211518952
0.34794886638838163
0.37466953195442565
0.37780652084143856
0.37354054016329413
0.42698844150360343
0.4342645038790633
0.45855660912165186
0.45886986563226123
0.49091427296555984
0.5073043077215819
0.5469266874869173
0.5317844309311799
0.5591220064308917
0.5886033965196329
0.5940120140403709
0.5848535274607423
0.6054973051582981
0.6284690443426851
0.6559116883561156
0.6529840923296358
0.6766278954473429
0.7347415722076404
0.7883876577422022
0.7989699603399567
0.7810644354371564
0.7255508568754674
0.7025711306100588
0.6347267291350951
0.5680291866329276
0.536357036234568
0.5366992204878674
0.4950475604858469
0.48285505928931105
0.47318734500402543
0.48873300750206433
0.5018470605832119
0.4938039960697972
0.4883298648800044
0.5441489947050425
0.5573257358290007
0.5474713200458011
0.5557537623985521
0.5689346391240279
0.5774559465994155
0.573034094973916
0.5523875254564516
0.5747904004748381
0.5638816479766945
0.5446270888046575
0.5063209444494783
0.5038590176832632
0.5138993977161056
0.5194636722788102
0.47729704975227893
0.46944280882264444
0.4821513929247681
0.4675661423877882
0.44431022738306875
0.46623105550538585
0.47001882844898535
0.4713710907627554
0.4398655826145349
0.44622539696761077
0.44998059338879576
0.46264158947915934
0.42677352462205187
0.42865758355801437
0.44754789896130276
0.46302084046605946
0.43812894424090765
0.4507725853654563
0.44907189428438754
0.5039168814333352
0.5259143274755532
0.5407056227577776
0.6058165002144044
0.6483487063287999
0.5769059417032019
0.5612012577474219
0.5394839205501877
0.525840457175873
0.4620625021120272
0.429750017607203
0.4344622256171706
0.4985438821489683
0.5013732486291591
0.6094536492864217
0.9822400821921757
1.0
1.0
1.0
0.34457104991848064
0.0
0.3285506618537258
0.34232452228281673
0.3274257656436794
0.32326523164393495
0.33119620375105274
0.3105068420648554
0.325745153161371
0.3412843542739125
0.36371915499367863
0.3574212543880103
0.3762920955211373
0.3825239951716969
0.4340796643578285
0.4357817923185195
0.43206079944949466
0.459944068391244
0.49695200661265443
0.5141594143480462
0.5320395888157061
0.5353853930076918
0.5765893728211193
0.5953477420118334
0.5931749943998057
0.6049981876711119
0.6390427108019398
0.6615901770224718
0.6581265610929453
0.6651536240803629
0.69729788143646
0.7356796281869293
0.7592208780619459
0.8022958639548113
0.8471116162823232
0.8180943267524906
0.761496711026132
0.7096523423593473
0.6533755934690711
0.6154157039799854
0.5682996368961512
0.5095839222953905
0.5134193590386777
0.5266648452090134
0.5099463477990738
0.4819977542270034
0.4906293034867727
0.5057300744247025
0.5327710064199684
0.5168955279975586
0.539544056330917
0.5790543026435722
0.604786815758456
0.5826842621020931
0.5811831863850558
0.608313552116253
0.6026978240460915
0.5868815039841973
0.5612499800271513
0.5738621010598467
0.5887293313035442
0.5735322962870424
0.5195772886130238
0.515580723018571
0.5420777363162496
0.5271584650815428
0.499313384784705
0.48881281296155493
0.48643863161112444
0.49919120837305425
0.4883090585541212
0.46113374767759074
0.46940542712201977
0.49051780661277206
0.47879844699994445
0.4498383287283832
0.46053285946194816
0.47905675574172574
0.4662271395690859
0.45929578822592465
0.4516701102788125
0.46750246732638845
0.460229810925608
0.4528587299266886
0.45812295380751095
0.4905946054668481
0.488124871816912
0.49615345883749135
0.5252183989586302
0.5864897880137455
0.6388067710966505
0.6597117953409406
0.6053466625745207
0.5904301277280948
0.5875838442134571
0.5561672290607937
0.5051035397679411
0.4886496752207865
0.45719054531826575
0.47279339159048533
0.5035703045029116
0.6100016433602895
0.8715981354833998
1.0
1.0
1.0
0.06358700754544788
0.0
0.3645209285186487
0.3034520070711122
0.3507583311767428
0.3518852940996474
0.33006050852918367
0.29800626919770035
0.3502304791291591
0.3428512256991375
0.36124728297391695
0.37782629911836485
0.41346187647020394
0.41278757908091396
0.44281399956698014
0.44893361174531365
0.5053113626341836
0.5093229248506679
0.5052691007639208
0.5103897089727849
0.5699589754242668
0.5970205596633107
0.5939194972231276
0.604245975369681
0.6301213769549378
0.6689911501464187
0.6377592383825276
0.6195168529837038
0.6649042329446676
0.6906990998644115
0.70460612216107
0.7101558907969936
0.7832992011691244
0.85350404574863
0.8339564951954322
0.73526089396759
0.7057883753473789
0.697358269005042
0.6502555219173257
0.5831212139331242
0.5495555700388222
0.5493392776893721
0.5509856415416982
0.520995667762641
0.5067149042028767
0.5385105078637519
0.5592550588972478
0.5636205075820439
0.5611005515585821
0.5970457038110162
0.6296358203167824
0.634288090376091
0.6313911577675809
0.6417844575218192
0.6587753373349552
0.633369453968557
0.6367084285511565
0.6427915023234357
0.6403535796605437
0.6245177879550753
0.5830744497859619
0.5788460144124791
0.5949708812349825
0.5783687997603023
0.5372622782348379
0.5285261695559405
0.5419615684658128
0.5461424726649561
0.5259162565396465
0.5167089993563839
0.5051003820048795
0.4880129350768542
0.4994715627637457
0.49274922882923244
0.48726725996932146
0.5015493793030961
0.4881559076071794
0.48538192426930554
0.4991925774328473
0.49868096926224526
0.48940136054147737
0.47686096139401846
0.4911410091157107
0.5424960606354179
0.5464165654551276
0.5425402968414599
0.584235370147253
0.6527367076197838
0.6934790778951174
0.6612202629844288
0.6071692771067612
0.6130894403225271
0.603199916632511
0.5549611355462332
0.5199004643421676
0.4961435547966489
0.49706700667639714
0.5051383381214127
0.5473917655218736
0.7541109497781482
1.0
1.0
1.0
1.0
0.0
0.0
0.3640952669067076
0.27413851479295925
0.4087786769670451
0.4262815673784527
0.36461865677410554
0.35367103162395314
0.39094885786831235
0.3943703727065109
0.4179120627225452
0.42388808444315484
0.4600141944949539
0.471009746831652
0.44963578964078704
0.4558391823603366
0.517467763069297
0.52418058983918
0.5205619349856614
0.5135074367821294
0.5579894513137694
0.6040052437911135
0.6285379506061846
0.6101973258427545
0.6326861693301709
0.6699308013238213
0.657969104788265
0.6352293124218659
0.6575195900696962
0.6679912609607517
0.6781744611844532
0.6871484162983285
0.7355846275257159
0.7924886356367684
0.8217076889545109
0.7829935745002792
0.7338843007947532
0.7136232993900757
0.6849017625386076
0.6253152737612074
0.5814610698062588
0.5628261265196982
0.568826901607692
0.5455853684959838
0.5283820820845176
0.5316428791384297
0.5495738577359417
0.5375439308771333
0.5328955826170554
0.5511184535757419
0.5848578828858267
0.5736773083829615
0.5789883657505338
0.5926170062549452
0.6340564342569978
0.6365622626839924
0.6085797021285231
0.6119439807231266
0.6377732168165199
0.6271008412013968
0.5995880145358479
0.5906289326079889
0.5897337615643852
0.5953859905787026
0.5540413563867659
0.535915479456232
0.5447425599847281
0.5516503797965888
0.5248691688903544
0.4977862696224265
0.5195833552452638
0.522008459174883
0.5001771275774595
0.48061125812439204
0.4787395766421462
0.5032948000564975
0.5004669539747952
0.47162665662711295
0.4777575048340488
0.4971172112044406
0.4800899340984655
0.46383295008185205
0.45497796582695466
0.4707186626766198
0.47658063019778557
0.47023409984630593
0.48023730345733695
0.5330555582126082
0.5820480807016264
0.6018603460299805
0.635963931165064
0.6752753778786529
0.6228642117549057
0.5980858956914485
0.5780122894356694
0.5556583413330739
0.5094478011302088
0.48181023938644874
0.4630934246731865
0.4871427071335176
0.5294132820727273
0.6664974069237551
1.0
1.0
1.0
1.0
0.0
0.0
0.38515708993284486
0.31120405232073045
0.3638654298812981
0.32934605501610703
0.3512614180345949
0.3464706827430411
0.36864827434335473
0.3412980295728227
0.38975837236773136
0.3970577223529591
0.39902841562720487
0.391242879884026
0.43920239237627196
0.44315364114635525
0.459812103568792
0.4613630867947946
0.4979284785129271
0.523604520824988
0.5352630977682857
0.5302969323009893
0.5661645828356606
0.5832338408932656
0.6027702915916704
0.5758172524917872
0.60197475948756
0.6354956686474089
0.6284559662041909
0.6154407709993485
0.6640675898350032
0.7422429257332818
0.7779773235108415
0.7669196311163881
0.7386270394443452
0.6825663960050743
0.6673213328266516
0.6001366493353368
0.5512464919947682
0.5441028691302605
0.5398325351125088
0.5004448348090464
0.4826562615715838
0.4768091226620424
0.5175494035745902
0.5076974643224472
0.5052726253789831
0.5186402430201478
0.5509889623067872
0.5585048654710129
0.5553940036657607
0.5703249481645551
0.6038990349408827
0.6038260485888923
0.5973105921215387
0.569689454149037
0.5932895673295816
0.593626133575015
0.57088440937152
0.5441534704133277
0.563084234272982
0.5611527634186381
0.5397207621512619
0.5089361906520121
0.5144650961075335
0.5145030981159523
0.5090245260162641
0.4687486645637464
0.4850583249966666
0.4967305464857472
0.48319542338010635
0.4647181630880629
0.46993574985406183
0.46761827877405143
0.47464188969524646
0.4457756198568674
0.44868819160787377
0.45999082495063226
0.4696074378512038
0.4463791808559937
0.4497756060324008
0.4628126867880516
0.4730633145878643
0.47108504097905124
0.4792545417175248
0.5117915789024985
0.5783053893361554
0.6024300370529465
0.6338949374667394
0.6416756458956273
0.6101952604275842
0.5716726380943823
0.5498357631372531
0.4927850772424919
0.48988975601664214
0.4709322630703011
0.47421566800648396
0.5023540644929321
0.6321705448773125
1.0
1.0
1.0
1.0
0.0
0.0
0.3996706568415312
0.30691102489152
0.3696087856569253
0.3525355682524542
0.3204373660594704
0.3223890362582321
0.35163727391444494
0.34886489725178593
0.3443303687230655
0.35370889543545403
0.3999822206401273
0.3907330895453259
0.4054467512929336
0.44116065077561306
0.454786221788145
0.4654642881909076
0.4756994858349234
0.4895455974421793
0.5416450653471994
0.5633853550316305
0.5621159867001165
0.5835711643421164
0.6183731621647041
0.6314184449868868
0.6340944375956208
0.6400800065737094
0.6757687923228229
0.6973028276389873
0.7025873246091342
0.742670292480041
0.8153900875965518
0.8559295622756842
0.8468102164097306
0.7888750210860428
0.7462512577105334
0.7074197379946231
0.6386804370581228
0.5643808650376984
0.5411370278424517
0.5223547974652141
0.5029102285186855
0.4814445427420231
0.4819526271322281
0.5093040678267677
0.5174975418917983
0.5022680443944687
0.523217535079472
0.5590753248630173
0.5767960775146312
0.5768650819044756
0.5754658733151803
0.5857086452386246
0.5964063335585168
0.5751975217688318
0.5591777984954036
0.5756918130776931
0.5743069755986723
0.5560897036759592
0.5264330967141182
0.5394079630189336
0.5158816127841179
0.5090385707041579
0.47239951243787404
0.48072677820716425
0.48862716685275503
0.4739099502951096
0.4532823029569184
0.46533291353204725
0.46611056505768095
0.4643389087725237
0.43868299472781436
0.43416641628180147
0.44843217986834094
0.4585530203218374
0.4227709271930201
0.43399908321381514
0.4445640039878424
0.4600524257144879
0.4406179996847128
0.44099870568584854
0.44934436023374713
0.4979860532053199
0.4861782742485393
0.5097887774814921
0.5697235580685425
0.631572176530099
0.6374209832493067
0.5847629735303886
0.54737769064268
0.5701606649809987
0.501749090194378
0.4537155061664143
0.4353350178315548
0.4764405893073391
0.46689202811189556
0.5366375095025928
0.8174317622869681
1.0
1.0
1.0
0.5058461968258138
0.0
0.22686780011013458
0.3063967225686291
0.23558316513903382
0.30947364259984844
0.32829284021267907
0.27342514520747757
0.28037504797354856
0.2938949130081217
0.3292587499946139
0.33178236625146307
0.3397201722036379
0.35237692476795823
0.39889087406613966
0.399502341576411
0.4237412653433288
0.4350944080665694
0.47156034366098315
0.5016246677821041
0.4960686902857601
0.4913280955093409
0.5395573099123776
0.5668428289124471
0.5805049999374019
0.5844039966438772
0.5956145498130366
0.6193891243769909
0.6271698753978212
0.6140569233232989
0.6332592229452184
0.651163234944451
0.676274382228177
0.674236381897853
0.7391291901337685
0.7890883532847708
0.7986245194518757
0.7678463438784454
0.7493127474275638
0.7121369138246818
0.6490189841850691
0.5911719370720673
0.5493167415316724
0.5249938381089441
0.49901021517801
0.48168057904069866
0.4824459498175543
0.49479340920263953
0.48681977453106356
0.4875983591670269
0.5034183993313726
0.5353298192787509
0.547809946265551
0.5461650292685665
0.5460186162851529
0.5853946901960514
0.6067855154509004
0.5800466680613376
0.5640308909121935
0.5909830763959683
0.6083986860531565
0.5841665634189352
0.5415036971574636
0.5317799650229604
0.546102144287634
0.5348881485363897
0.4973932448302201
0.4653206098372646
0.48047142321234315
0.4761655179626674
0.4489017585381914
0.4557633762502638
0.4548231354084473
0.4383506035038833
0.4191047905892361
0.42112777189365563
0.44111716533532197
0.4576425339227238
0.4461293221829892
0.4338771783342857
0.44172917614175944
0.4498295004065927
0.4329425699780797
0.4386124029304109
0.4442669052129983
0.45500618102634327
0.43747515304595197
0.42736804602150025
0.4595574612847977
0.5060718519004607
0.5257829390007074
0.5404675902976892
0.5972909559940657
0.6516012080283943
0.5916223766324953
0.541640358105737
0.5092952691809096
0.4932681527552978
0.4920147995728977
0.4386920957303704
0.4158093726722484
0.46628907860194174
0.5230943808536325
0.6956902156385627
1.0
1.0
1.0
1.0
0.0
0.0
0.3135263150616809
0.22022258112528723
0.2795832389389016
0.29779728066972727
0.3193875909624473
0.2824838460708
0.28595304156631857
0.2883893622145962
0.36164848180824416
0.3503759951616939
0.34366248585778003
0.355657145560477
0.3977594463054963
0.4278318257412341
0.4303703393432084
0.4267713479731463
0.46575086465529997
0.4897917388054923
0.5252665030702166
0.5183965863251248
0.5464804376989112
0.5715573435926636
0.5716997265227692
0.5701477088219981
0.5919759507628128
0.5938920272058856
0.5890033327285851
0.5784464708642283
0.6064771326551476
0.635392284370356
0.6507776262078879
0.657794841216883
0.7356599737843734
0.766751976559135
0.7252752455568814
0.6492116861462465
0.6067780875978503
0.5824356507540113
0.5559034008137761
0.49518785551244965
0.4671769803162552
0.47861073014112837
0.4957734216080533
0.4709501735288228
0.46936988848547206
0.4748803122241404
0.5033886402725907
0.5067805338218326
0.5265792843673843
0.5344322964534483
0.5763904927559962
0.5542285263071003
0.5728469148902778
0.5750697667809896
0.5889345420592589
0.5830902245988653
0.5756728711087201
0.5689572037719949
0.5738430229113602
0.5524938899957403
0.5173417207536486
0.49722648192676766
0.5261184123500678
0.5139499168954035
0.4830257537599875
0.44850640908131767
0.449200467125662
0.4659205361937637
0.4637014382888764
0.4292874192544187
0.4409705619264706
0.43746855414414165
0.4240664168929669
0.4191864051854258
0.44618973742942947
0.43874394691782304
0.424268702663346
0.40168374098533854
0.4068687800007124
0.4329047952375542
0.4420184003134963
0.41484707750340366
0.43257498107002423
0.4437659752582917
0.47562867296098305
0.4820510917220425
0.5202553587126909
0.5730459441496368
0.612992456473434
0.5606335324948619
0.5274606153661946
0.520310042807427
0.5252157966733505
0.4462544330430269
0.3952866116438777
0.41085090000379687
0.4433889112964803
0.4474167166534323
0.5521946792505708
0.8743909060622161
1.0
1.0
1.0
0.0841504925882445
0.0
0.2412928783151656
0.23681938510025505
0.28864818868208864
0.3274188807504674
0.3264294688595868
0.27094442507004635
0.3063242496131679
0.33139080226301665
0.35881915617698307
0.34545101320976396
0.3545355382664302
0.354244210203534
0.4003611089670155
0.407001404105642
0.4226943638237334
0.4400394574953423
0.46802383198787056
0.46697660669659724
0.48190881353513976
0.5093346162357468
0.5525953389017456
0.5425019780642115
0.5591327911370939
0.5625091712104081
0.5900654021693973
0.5883391373363984
0.5777763630008025
0.5744138304388933
0.5917423260328052
0.5832168144068839
0.6202378583510668
0.6639642812301217
0.7310260424922335
0.7370066034436855
0.6844038758620581
0.6278336587435571
0.6233589295046909
0.5654200541151343
0.5098247053985464
0.4774447638056589
0.4737035375476474
0.48047218073312103
0.4693300413059046
0.4467364165733702
0.46165421565295883
0.4978869182833976
0.5065593259001194
0.4972183179579212
0.5363508856453494
0.5565483108898925
0.5804730658708103
0.5515859687827117
0.5704619460562743
0.6007143340122061
0.6018169060924358
0.5700273514084575
0.5624223374637498
0.5561069216410676
0.5545201940590437
0.5128957349721335
0.4959248171548264
0.4898047447102897
0.49030855039271415
0.46093019483363645
0.445258855761837
0.4425761509267122
0.45653712673540225
0.4292234780576008
0.4190599221923931
0.42507711563282174
0.44739419354906246
0.4277456856884047
0.4111149214523636
0.4219553733904813
0.4384237008751727
0.4038923963558435
0.4144801317291191
0.40693895502424526
0.4361885916420623
0.44234288582381576
0.41940328796712434
0.4071369974598994
0.47893354451086034
0.5116387944072063
0.5426302111503367
0.5690800176621278
0.610356051297545
0.5726107787125914
0.543565381416005
0.5153085103752666
0.5197261066226857
0.4685075685872101
0.4341217931889293
0.4227570782623327
0.4604058860260206
0.4853621004212482
0.6097451552135691
1.0
1.0
1.0
1.0
0.0
0.0
0.3578891126290731
0.2675830656924941
0.31089254015997014
0.3181840889923912
0.3101402339658469
0.300756783734917
0.30105090010139535
0.29588515605820265
0.32878145010916854
0.34419512827625287
0.35713963983435953
0.36273751989833486
0.3951800136737278
0.4206965881139431
0.43441897118165207
0.4163191875081648
0.4457724090215535
0.4866035451047795
0.49298734221551144
0.4991738079527611
0.5348559619716378
0.556557749697957
0.5760699929534504
0.5741516048311477
0.5849149266784661
0.6133951509669173
0.6323684088317754
0.6211843891034766
0.6406312096293522
0.6901983243408096
0.7438068181566625
0.7777859784774656
0.7902756150114183
0.7713932510745531
0.7487988151724285
0.678290749504667
0.6090981288215817
0.5803935515359129
0.555964628972135
0.5055993969333505
0.4692090470422815
0.4620225295036008
0.4607915937933439
0.4718514189934271
0.4533657376276157
0.45249515162163984
0.4879367270177407
0.5065888864001415
0.49185100092892364
0.5087772151272512
0.5327053429424552
0.5525842132328912
0.5437899217075599
0.5440509402615568
0.5515188318838352
0.5704371022955835
0.5550902064724975
0.5323745619130708
0.5356911293207515
0.52562346521277
0.5036148482248259
0.49700583471524096
0.4948573035345617
0.4881230047709
0.48107924564466326
0.46752268754321574
0.4565686147764018
0.4678800774589057
0.4599879816633917
0.4370348051647762
0.4339213932574375
0.4459504769377385
0.40682496536493107
0.4057528872596656
0.41885736345939906
0.4278081796978526
0.42054776212287637
0.4159489403392844
0.4085572092970066
0.4332247433144533
0.43041123548924454
0.4177164087072017
0.40289664515720086
0.43782680037939403
0.44058012948920966
0.45255783015935747
0.46858389676779105
0.4912107624101026
0.5345087605979008
0.5918094288630131
0.5482550454095937
0.48910473257607395
0.4921110605261811
0.49496510614327816
0.4360633742492343
0.3965532948190683
0.39510072626446396
0.4363738282831943
0.431339271632293
0.5077172622032462
0.7800695158844672
1.0
1.0
1.0
0.11696667197377116
0.0
0.32850297459236294
0.28513560795353127
0.3144763207249876
0.28614365163311073
0.277375481321154
0.2572675840970287
0.2960598989947491
0.3097728263269289
0.31936257905456056
0.3089988286700892
0.3476362509656429
0.3832406257666216
0.4025000314224698
0.38642229524781324
0.42293025635984993
0.43342384946142937
0.46374073281156275
0.4668423065659925
0.48733184440802046
0.5191470997038025
0.542993430682052
0.5355306361761495
0.5587438879210664
0.5742239209543893
0.5904122989187096
0.5839346488991357
0.6029234770956735
0.6181191935100929
0.6614366109540947
0.6822933994910673
0.7303019347495218
0.7840402056145042
0.7863732267439788
0.7217730335887891
0.6663120027930015
0.6208997605127275
0.5850814952200424
0.542669578602171
0.4917733190086987
0.472529967610581
0.48063037578721957
0.44750477032965613
0.4288288780290774
0.44253144491116636
0.4830204773484411
0.47439238019825314
0.4723576001828416
0.48122049124587135
0.526530125738198
0.5345862986732901
0.5173763104238349
0.5229575082212522
0.5516142685621355
0.5552324566426694
0.5357940896328914
0.5129727930910248
0.5224168514812457
0.5430120765734504
0.5149837725828699
0.4868151196924092
0.4885302638067775
0.5004066739762065
0.4781823380755158
0.4341571803205248
0.43269318941971263
0.44064564467564554
0.4536710209065796
0.4166929774402595
0.40277753957702644
0.41307051867251454
0.4218325013175567
0.39266012512347787
0.38508238519255295
0.3984412482553422
0.3994730098955287
0.3876050055396575
0.38627234913291886
0.37863430520064945
0.3844211038459481
0.38378167537286006
0.38231351225730803
0.4013590957968021
0.4179611812134521
0.42195395990943474
0.4598307278743398
0.5091123036463819
0.5617567076834705
0.539102038477182
0.4709367056681214
0.45537115371616405
0.49377924112743327
0.4582524497700303
0.38060144702869597
0.35878653804771327
0.3988564897307983
0.41317577794360244
0.47648808640100737
0.6233620454446144
1.0
1.0
1.0
0.31502992353961706
0.0
0.16838237753028382
0.23373453018502052
0.22520299703912486
0.2559226765954759
0.2728973289263358
0.2420850802079529
0.2391466418101401
0.23446347254136937
0.2924161994703963
0.29577089988733796
0.3063474019802066
0.31764861771990677
0.3415401752130827
0.3559131782833506
0.3556625748195751
0.37712670977741825
0.4223814602979294
0.4232882259285633
0.4020562541777554
0.4292922050324017
0.49469721503068087
0.5182636237774989
0.5087094289180127
0.5018860985608965
0.5281962336814692
0.5551760997537584
0.5553824043753067
0.5231789036299557
0.531321760444086
0.5628492593239487
0.5761051072418911
0.5832812712746417
0.6504088553918214
0.6978324266548829
0.7064893038857486
0.6797582547644648
0.6327221324650751
0.5978345464986433
0.5541353432265244
0.48977930078374393
0.45844599498376626
0.46029481323108445
0.4417105870317151
0.3830040692573979
0.38062732143004957
0.4138735325465004
0.4328285098332046
0.4203512328381545
0.41601624378294355
0.4240559723952508
0.4574935230866034
0.48424487114066117
0.4772134433978722
0.4830676136359645
0.5100119957313234
0.48777853856987496
0.5039657223730563
0.5305851545564744
0.5226703416981958
0.49870967451922105
0.47742057119025916
0.4833114322282457
0.49780666177867816
0.4817259174831302
0.44376959528857984
0.42891907176002786
0.4497378981986446
0.43617438356177285
0.41005835093536946
0.3971011960955676
0.3981645429863347
0.40203643769096953
0.4010121495448886
0.3760621888502514
0.3910184167887687
0.39364476160308526
0.3638304236021857
0.3679109537896657
0.38750464635619447
0.3779453886427091
0.36537365736051586
0.34540342001418267
0.35874773425212836
0.3704244201434524
0.3875644668258227
0.3664360957063509
0.386566156510593
0.4342979740152252
0.47140496395189635
0.49418093839887467
0.5203629610186489
0.5167767953349838
0.48272735815389556
0.4444266758383278
0.4548254516920916
0.42647585049648845
0.39117095607225916
0.3582285938863535
0.3728322272385566
0.3993751014936565
0.5087671920398906
0.7665640250963939
1.0
1.0
1.0
0.20787867453528802
0.0
0.13255261936284152
0.2167548605953003
0.23688234935952668
0.25856600365814697
0.24901107541033415
0.24047531893706617
0.28783201304194306
0.26390064803609026
0.2827247972620199
0.3071340999790385
0.33138827217480105
0.32466192503368535
0.3415883036223596
0.3651105911270795
0.38962517253817797
0.3718792233171745
0.38148555446746635
0.4246225831787413
0.4594840751771729
0.4645323004457967
0.46651883483595985
0.4819032810099477
0.519140078689721
0.5187182966397137
0.49615955551022417
0.5016946536485833
0.5363323320892945
0.5257037771774828
0.5123600418901947
0.5244990964150258
0.5771955766937842
0.6416502827605403
0.6573543111356528
0.6473198413162655
0.6253870392085761
0.59026904245452
0.5261675684113896
0.47489946335558936
0.45187149713015085
0.44206837647691605
0.42508183195354887
0.3893364025410823
0.4032707241632719
0.4100638416024779
0.40983613449736556
0.3848567594228015
0.40064353617614223
0.4417291436712846
0.44443546097497294
0.4343851726381631
0.46488844987170125
0.49813394151741275
0.5077251939223906
0.49252496042683375
0.49398612920239343
0.5227717943680729
0.5204961716314289
0.48286611593185613
0.4814222793177986
0.48669170117118454
0.4704256509748149
0.44365187969414127
0.429564855292795
0.42893848489454944
0.4382117029898728
0.4207527519069618
0.3838328660979291
0.3996568490404647
0.4045952453884055
0.3863740975668776
0.37152103831030514
0.38076229774115844
0.3765428219457134
0.3790607280280865
0.3611794971451121
0.3627198624714841
0.3761144119912673
0.3740916826451269
0.34986338835437764
0.3543054198776364
0.3680697810298782
0.3795482687469818
0.3696109296940171
0.3650491962915015
0.4010138989511116
0.44302422511820405
0.4610287080782271
0.4834565165654645
0.4815931659224864
0.4354809978193163
0.406812554130681
0.41101359793717374
0.38519479055626904
0.3579146089545063
0.34522167029658213
0.36011053739707793
0.389635181177153
0.4829466087339294
0.9153241002624697
1.0
1.0
1.0
0.0
0.0
0.28681036547123406
0.21184640535506483
0.2818271399286301
0.2744280693594988
0.2700337555874632
0.2574021606037935
0.26283699003103456
0.2602186117763435
0.28264217396807656
0.2910618705129152
0.3282446366047206
0.3146191946195341
0.33150218648917884
0.36269752096098734
0.40764670093340893
0.3950539116103612
0.3980311565933897
0.4127903096336805
0.45534908523776574
0.4716474203328442
0.4789722156419381
0.49256783971764795
0.522560811746033
0.5239864359443531
0.5319440714692008
0.5322809156525847
0.5666649591408144
0.5889022632570081
0.5811844188134645
0.6062243171838877
0.6657683585545937
0.710676925329308
0.6963178095336288
0.6588815271652593
0.6390146589056227
0.6088728493035463
0.5368425334296995
0.4777360087246375
0.4574418533491986
0.44208879731276757
0.41829278356225963
0.3999396556936564
0.41181891628040496
0.411145108840271
0.42867541202308496
0.408494184777424
0.4369771788048878
0.4632628840655718
0.47772878480542075
0.47355029080052197
0.5003140991280952
0.5090758410005858
0.5113686390634277
0.4898167775369454
0.4805769683275652
0.4981704648637503
0.5076568283347147
0.4737519830988031
0.457746242224915
0.4540425203729588
0.4499360052372583
0.4417509199390248
0.4306937273063333
0.4262862827409452
0.4265744313692917
0.4095925064178977
0.38356593430252295
0.39577908774868575
0.40513259979891575
0.38979226667809835
0.37959577193045735
0.37168472094905286
0.3760481061147412
0.38652352936229506
0.36405548985616165
0.3595429926316661
0.3855149948954521
0.38031619184013954
0.3732130620398898
0.3732191686674152
0.37631616192624173
0.38247871827658275
0.3836978987535561
0.4000792295722517
0.4305457604351822
0.4887923194719611
0.5019356325870146
0.5156804423207595
0.5089783236778546
0.4746488307478904
0.4542503468031751
0.44358459691043617
0.3999687130947541
0.3811131487676658
0.38366750421158075
0.38827710766107487
0.4084001043572448
0.5078486014059067
0.7552427030932531
1.0
1.0
1.0
0.5266001121228858
0.0
0.15596604071619447
0.2713473927323936
0.2557382477358435
0.273534449711099
0.2567880739898768
0.24225053399714405
0.2599193217216391
0.24646457250140102
0.26247080376735876
0.2697239366779897
0.3089159204594113
0.30445334896262805
0.3160042036311024
0.3298168410170471
0.3761144757790421
0.374503299569612
0.37330313870823983
0.3888231876399066
0.4183230826760605
0.43813823569363597
0.4598579754108504
0.45477341430098994
0.48452638685243193
0.5146255209974587
0.5028939824686652
0.5163327314237838
0.5511243705104156
0.5622665065833401
0.547683747244634
0.5474881832227106
0.5836362342943938
0.6023932869646803
0.638808131254444
0.667254475242759
0.7026446893289948
0.7158220116578304
0.6752285622622995
0.6118238977420954
0.5756829438541914
0.5407082124687596
0.49034324631000414
0.4709104652275534
0.4566750421481027
0.4573694334974066
0.4437221917176565
0.42332257912591087
0.4284695906087867
0.44455747122569444
0.4560917631506228
0.44661438637032064
0.4444351640413647
0.4793977078650616
0.4920018035179078
0.48432358919069446
0.4980062851698177
0.5110672476689841
0.5237427508978538
0.5051278174961162
0.5015681987174544
0.5044232003485789
0.5174915482862089
0.49401118884325984
0.459347023894596
0.47453482763715715
0.48103982539532664
0.46036209872004685
0.43825561328257584
0.4189314270770449
0.43132669789611605
0.4287036659361725
0.39660810246208916
0.3941602936827711
0.4175687928197528
0.4253352297550249
0.395597644014996
0.3765420044962324
0.3994451821210764
0.4028003722205039
0.40744386377147424
0.3720666568620926
0.3712467108397264
0.3956459385697112
0.3975721692446374
0.3773166664628292
0.379590520211488
0.40128777232264967
0.3981641833485058
0.4055771954804001
0.43732867669312353
0.47716242100035283
0.5162172459671284
0.5374116318199882
0.5159248779064749
0.4877177982424218
0.46882999142544124
0.4523179310063233
0.4364909090221477
0.40727717083482207
0.38563204332151696
0.38389140000585137
0.4054030608706035
0.479885641109105
0.6945274123611798
1.0
1.0
1.0
0.895566809318576
0.0
0.0
0.2667540264404655
0.23242422358077364
0.28029547760992257
0.26592645552190014
0.2359164989683961
0.27966636630894326
0.2876777767746859
0.28201185560672337
0.28397598167390103
0.3298136730466716
0.3420596007529184
0.35212723532608925
0.35570663680639203
0.39714381679238586
0.4178583009226505
0.4111860977705882
0.42487327065272557
0.448043386340526
0.47183328404908265
0.494668019563486
0.4980749086869337
0.5222353419965576
0.5269068794559132
0.5270618829461442
0.5212931381255379
0.5431919746851163
0.5343180375052805
0.5397408234428784
0.5465367185126071
0.5960735208342395
0.6463136047251192
0.6778157773102513
0.6416810051514653
0.6345817812777415
0.6272936537854349
0.5948332334561891
0.5281743120858957
0.4914411849955477
0.4655454535524693
0.46942226005990484
0.43950097934166443
0.4020916322934118
0.4187236692704685
0.4474308715888878
0.43172687141558636
0.4454678957223618
0.45262011650759
0.4736375983262837
0.48000360692746924
0.49750931898425854
0.5205937603276108
0.5387415079716931
0.5229680322609144
0.504503075119415
0.5149797612627947
0.5432935400544199
0.5197924980797126
0.4864636590115226
0.4829315292831235
0.5096360005019345
0.49262259560738675
0.4712691190838304
0.43662335898342175
0.43934076020604146
0.44378166795118246
0.4315905454801464
0.4024155769821114
0.42250348044975805
0.408910619540909
0.41241346089604275
0.3939620066838675
0.4070791457508511
0.4074909821726543
0.4022746864953744
0.3789657940345747
0.4060404178906893
0.4057470385611853
0.3925210246099673
0.3745187753275664
0.39836299319639856
0.4193721998172342
0.422156270169308
0.4001007650149588
0.4308656035400945
0.46714727712101184
0.5251247042387543
0.5312010959050623
0.5583935268454552
0.5438691082819698
0.5108489096444714
0.4917956727883578
0.47488304967841677
0.42905856580365354
0.41918106092018287
0.39257144325547816
0.4276276801668441
0.4743032427681282
0.6356114638420316
1.0
1.0
1.0
1.0
0.0
0.0
0.2790437496621724
0.24290940173345005
0.3229432855754259
0.2826139505479283
0.2773360987498736
0.2809857076910277
0.3129588896920793
0.30402724333763453
0.3118423784123758
0.3494439335171804
0.3732348176039164
0.3624871230573811
0.3784012626662589
0.41076324370768064
0.4299443739224175
0.41450895589934583
0.4309164294346438
0.45750730500485304
0.4937346450780614
0.4773586805126115
0.48910489897375486
0.5149191888650607
0.5370781181514114
0.5248854775197689
0.520133190122522
0.5112941245886444
0.543242712452156
0.5562386600504403
0.5394978960552849
0.5687582271592234
0.6365850927815144
0.6775330094822994
0.6672735477625531
0.6253748473373205
0.59848251577207
0.5625291189136996
0.513096187627897
0.4577020291432719
0.4416284415623738
0.44023629974165085
0.43907155504817574
0.4240000048987659
0.4358643801841288
0.45699583181560266
0.45530026625596093
0.4518044828882265
0.4848860375605673
0.5105427964383663
0.5091209719154544
0.5085194135255138
0.5180169618761156
0.5484366371364183
0.5527194176406425
0.5396490527203368
0.5362092389756914
0.5475497553517834
0.528167832942692
0.5087273427559442
0.503913872972642
0.49888118110894597
0.4954457495587456
0.4697230843092566
0.451170113230987
0.45770338857397874
0.46908561531812715
0.4389514752584275
0.4171046989312187
0.42953441789450597
0.4352421362162556
0.4229300209736251
0.4169576636985327
0.41831542646704056
0.4313706416384461
0.41711959171634927
0.3923923810209081
0.412165568068664
0.4296288389709841
0.42489633920621206
0.4087682894029678
0.4130418238193675
0.4323114353899512
0.4660314562532485
0.48694254509832124
0.5172469969981026
0.5691657577928115
0.5812882004545485
0.51029460874274
0.49102489085733547
0.4966244910653721
0.4716417931667813
0.4262852353118486
0.4001528711549402
0.4285766258490253
0.4639553359270433
0.5098026845356107
0.6700636368462533
1.0
1.0
1.0
1.0
0.0
0.0
0.3103464929217489
0.2521475819801442
0.31100331244905294
0.33273520701647447
0.305453499925714
0.30232166440866776
0.31346351359414887
0.33891961616348903
0.35852538144302254
0.3517748062019591
0.36039139879311594
0.38982404061275444
0.4271757879534469
0.4168158708226569
0.42325588582194607
0.45444406162678963
0.47764650480931553
0.49601382671356253
0.4913042288701697
0.5156206921762686
0.5525423794746964
0.5549414547910227
0.5591296657687201
0.5656120101426882
0.5959331290492771
0.5971859399386987
0.5902700961895361
0.5987739674166799
0.6291428306247924
0.6658503363027294
0.6883964562301432
0.7183742066577292
0.7584648008903149
0.736052937736097
0.685323382670811
0.6366199738731046
0.6038810185568506
0.5777759244007064
0.5282289281044903
0.4907399913081189
0.48411773281453396
0.5046031898632899
0.4735320498956625
0.4665403664049198
0.475291648107601
0.49570616924509875
0.4845633297819429
0.4878119906917472
0.5172300290497891
0.5188657257018198
0.5327946486058879
0.543459246255647
0.5414229911196408
0.5692808174783445
0.5553460308438286
0.5481232105717349
0.5461294863642963
0.54163500629369
0.5437025668745854
0.543097272262086
0.5083698070025473
0.5141848503404579
0.5159980479815688
0.49057117786677373
0.46837383508972835
0.47647040912864036
0.4770917635531702
0.4628429287804149
0.447168701183677
0.45001243097348
0.4592396203195994
0.4537903816941823
0.43136617746397976
0.4289932939566353
0.4568569379052899
0.44976446470947884
0.42008529510652304
0.42592271247616875
0.4428458994236212
0.43775344330034854
0.42835315108586736
0.42690675739215206
0.4409114396356088
0.45432501808505277
0.45944875050470174
0.4580295655533425
0.5181378546897379
0.5481938944644548
0.5630486702054811
0.5200296790866754
0.48047426319613473
0.5031388794325639
0.5048331696404531
0.44742904410669376
0.4210937417402529
0.44803211542081023
0.44754973555124344
0.4792110021044418
0.5730988980290901
1.0
1.0
1.0
1.0
0.0
0.08892248799166617
0.3839690987469918
0.30987015122275796
0.3471160355136887
0.34413055938160997
0.32173478746661893
0.3077522784639939
0.3353410301791064
0.35681500145312706
0.3559068872251749
0.37410023068458576
0.3949796830491933
0.4146134596524799
0.4360941183591393
0.4368413245715165
0.4500772256696596
0.4865665491130969
0.48519114350119696
0.49366132169354227
0.49828645362565166
0.5396197712353197
0.5548768246716949
0.558796539525918
0.5853294718393818
0.5994062740721181
0.6215630633550647
0.608451319720498
0.6112531736279594
0.6488614152085335
0.6706008840534022
0.693578648725188
0.733701216714186
0.7724385363295976
0.7868422056779217
0.7385519447608215
0.67598705058846
0.641273133654781
0.6127425681888532
0.5489152293702224
0.5147562716364635
0.5104875094662555
0.5053667167608041
0.49473263226399194
0.47574863527246974
0.4765207685247358
0.49480813392140666
0.498420796099383
0.4920793988089304
0.5051395798154453
0.5463875890708151
0.5509463030087302
0.5474649593203924
0.5538485915650395
0.5625589329595875
0.5720106003338008
0.5547344970752087
0.5337596736402361
0.5595126564802018
0.5509111303696634
0.5271589219101434
0.5117018472576766
0.5139981004916871
0.5054649120169443
0.4916775811905194
0.4657532019589521
0.4660302661683599
0.4714420030584189
0.46520301655927565
0.4319021646211846
0.4390737698460449
0.4639902815268603
0.45559806141923725
0.42861305046713494
0.43304976560887926
0.445411000861597
0.44553706106059704
0.42589023764493283
0.41255198835383367
0.4307382492756389
0.44981411978428276
0.4294793737805593
0.4196287012100738
0.4337413024716539
0.4556643076839597
0.46164198408629903
0.4732878377768356
0.5084194106310831
0.5454729854156742
0.5409999751133417
0.4658372071029623
0.44298963978172007
0.4906287373755479
0.483039352111752
0.43204761395366553
0.399322676332458
0.4448807728094387
0.4978582210800096
0.5945767892139135
1.0
1.0
1.0
1.0
0.0
0.0
0.367165079627413
0.2844387448364823
0.30423065613213146
0.3045389014371544
0.31936498609955644
0.308768942308952
0.31124010646079325
0.31701014519808474
0.3494292364702246
0.36268615538376825
0.3641149329725074
0.3735278229404009
0.4158484460515487
0.42976072960859585
0.4470956875634674
0.4623666180247009
0.4791570387336078
0.479624761174722
0.5082360176037823
0.5241078107666772
0.5476796784380975
0.5620834580340118
0.5553674052080485
0.5600735681607768
0.5911041631868713
0.5963322194333538
0.5676013459817876
0.5792992835461496
0.6049727841372972
0.6241460402541656
0.6452177182340634
0.6593115057564214
0.7131163311584018
0.7346303310879119
0.69588706557593
0.628158598031406
0.6021445185710981
0.5826361322927427
0.5467867426735857
0.4993643734742103
0.46687669456526926
0.4597061925051591
0.47519736066652235
0.46126809149673004
0.4571281593549209
0.4728005138912992
0.4865994191218143
0.4982248513061938
0.5077159294698392
0.5267079568133972
0.5423116282875965
0.5501525023285182
0.5571383781855533
0.5651650213356464
0.5792181215549336
0.5498216146982613
0.5338784856037248
0.559789032061819
0.5587717968914915
0.5400941968757131
0.5088039647712064
0.5017686284878283
0.5264679316760384
0.5158458511355213
0.47918937933213224
0.46409433571853864
0.48005555546503764
0.47092495304507925
0.45185892063290245
0.4433818525643707
0.445840587610434
0.4474515010820207
0.4381125811396636
0.4310951057238537
0.44156926666366053
0.43690178094521814
0.41107430321861704
0.4256520500506079
0.44036014656001327
0.43929749757148706
0.43060777342215256
0.4162655450804503
0.4339924657678619
0.4927871050352535
0.5321070407800954
0.53196609083739
0.5386288291242216
0.5144709146787237
0.49706606370909334
0.4844189189568106
0.47806865364507056
0.43573532352236566
0.44562879309306347
0.45245318922845923
0.5140597047319606
0.7244393555058586
1.0
1.0
1.0
0.8276076748591752
0.0
0.015488839260793785
0.30092691597767673
0.29796812186920235
0.3746688078840334
0.33568116735229947
0.3067161863477911
0.3341197142371662
0.36823710198787835
0.3757107885035237
0.3685968698066898
0.38321857941149984
0.4181068722312518
0.43502505377159356
0.42922086104788193
0.4349353082141157
0.4692764281494683
0.4999165816626173
0.4985289573969747
0.505851977136252
0.5332854031858917
0.5490791629394806
0.5377049602244773
0.5611637755679135
0.5856979225634825
0.5863388686214721
0.5688762470577746
0.5567683456239619
0.5772585147171029
0.5927476791417372
0.5884651730760986
0.6087325879863636
0.663639381679473
0.707763850874876
0.7014952553216595
0.664585042248209
0.6186568890928374
0.5972924816021166
0.5598821748823973
0.5067964994539541
0.48171148315971823
0.49102013824489504
0.46769333757693465
0.44747385417614494
0.452110881520404
0.4651155221732429
0.4876716844892509
0.485598387078708
0.48129261163295356
0.5052013534035122
0.5369422307704099
0.5362699503158922
0.5317580811076895
0.5562374360410904
0.5779306740811089
0.5699688712282922
0.5597473432294708
0.5674675332917776
0.5793140636993944
0.5658877966044841
0.5354648681299853
0.5276502476970615
0.5254642127421714
0.5024271755888822
0.48496476149888246
0.48455608451841164
0.4839524376958278
0.47708005071602394
0.4615057121575387
0.44788586615706605
0.44324479855225885
0.4451963125908557
0.42863312418397
0.4146980313201543
0.4271030034221909
0.43681583834655446
0.41929074935415833
0.40491598738524653
0.4191320800548007
0.4324768736928518
0.41428601499140233
0.40499171648909005
0.4205964863711059
0.43738750916494273
0.4344289460999219
0.4483152488047993
0.5028369725136335
0.537432386779761
0.5183136738591699
0.44974671688374884
0.4463210826632282
0.48398994500661663
0.46497980283127893
0.41389669597185835
0.4089578025157266
0.4487068508608608
0.5026061373970349
0.5996805866490877
1.0
1.0
1.0
0.979692015666086
0.0
0.11845849478417603
0.4004381749447933
0.31813677038713173
0.33723248344858836
0.3169850365811261
0.33502020816633526
0.3178580512337882
0.328595437187137
0.34166014436594794
0.3649099535024063
0.3861871586109598
0.3864134058810939
0.3970629075593818
0.4284610183139179
0.4507675109503147
0.4445794831544666
0.4562007399871112
0.4928541879927198
0.5058924067023645
0.5092916445884083
0.5283385397693207
0.553262386052342
0.5800322342681389
0.5764996683028125
0.5654727504854025
0.5846985044505093
0.6154286078299416
0.6196512355133279
0.6178171329996993
0.6503401492143033
0.6942556239536433
0.7320966658592367
0.7490276241234227
0.7578354652918603
0.7444711924404658
0.6865346275780625
0.6216475138295856
0.5646139074327376
0.5436879254099072
0.5138204398494679
0.47372318377615796
0.4538881659859716
0.45982050423395415
0.47723453568992474
0.45692780096411945
0.4595801124315475
0.4789440780509267
0.5023085452416893
0.5130649530982072
0.5082258607116289
0.5291334607167163
0.5397009256887112
0.5203472011175494
0.5066428098087188
0.5375047865563014
0.5420058886888532
0.5419251693692091
0.5197468256888417
0.5090520784537504
0.5174346742562836
0.5091386670675732
0.46057354622545194
0.45602510102596067
0.47603404784766684
0.4655302320812217
0.4390801857805549
0.443584364149851
0.4420501158346279
0.43411928266425115
0.4221575064329469
0.4068571344659528
0.4287289528910959
0.4318423374753655
0.4169948014593655
0.40447545553320907
0.40858035447043084
0.42369934082673666
0.41956607245299776
0.40653875864819955
0.4124589233713906
0.43233195192441015
0.4295012651613731
0.41357918361823554
0.4257535234194937
0.4863358488672869
0.5163596246527485
0.5111423069013614
0.4900804940118945
0.47125517527683736
0.47987130558826385
0.47211241995918146
0.44870125887668044
0.44547367970456814
0.4348753224452869
0.43763524466232273
0.46004548710672105
0.5395898308777889
0.9049895299477603
1.0
1.0
1.0
0.0
0.03643586037543134
0.38997864650599107
0.2777975496741697
0.36356720009487614
0.35160947361030004
0.31742100707063453
0.31315066761405247
0.33151532491485886
0.3347245471076563
0.3418585131789126
0.33666383044520815
0.37506821539878565
0.4088670735037313
0.4030123758143196
0.4121658455256729
0.4474268074416865
0.4532830088502132
0.4631555943718156
0.47395159621105715
0.5003483590913107
0.5171975619286002
0.5312421671064999
0.5265715211527244
0.557505897842004
0.5881657905499073
0.5827193386491663
0.5629202522213139
0.5838417929386766
0.5962931516434935
0.6103710887141456
0.6124632292121317
0.6335087325066239
0.6854042300842297
0.7310112136122155
0.7474870781916095
0.7433296610460796
0.7418423863436919
0.7007280863197523
0.6368097826939431
0.5897700437116887
0.5651535537284124
0.536854084160513
0.5013049357684214
0.4746350480184822
0.4862804393347992
0.48169483172372757
0.45787513269038466
0.45878671573376284
0.48696227637043926
0.5097558013198602
0.5104105703603814
0.5145877691791864
0.5257824710699932
0.5510759315435718
0.5481583082306458
0.5414762497270258
0.5464345773584329
0.570944663288204
0.5746643170771626
0.5372977202752411
0.526423988547098
0.5482856153264122
0.5382127165255928
0.5081834639452604
0.49092636560544367
0.49736498022515174
0.5053261041000219
0.48143580597083624
0.4533749935355382
0.4628573694707928
0.47552670528957874
0.46867571967319516
0.4449226383899364
0.4436464225772088
0.45018484236367085
0.4572322868819073
0.43531336883987215
0.4255983267277766
0.4434164204028357
0.4471715807002071
0.42886615262294514
0.4228420072455471
0.4439535380658364
0.4495889626093472
0.4291394081738348
0.4347586995234464
0.434673640731784
0.45707788881907413
0.4978633477508484
0.5137631175613104
0.5270643314582266
0.49159341703499376
0.4592749651015457
0.4766260456787304
0.47476391704408305
0.45633434665028966
0.4099912220134579
0.43498720454036305
0.4768333198898803
0.6280373077538699
1.0
1.0
1.0
1.0
0.0
0.0
0.3362981562871893
0.2604206425240335
0.32687612376195435
0.32183850160041827
0.29903463309508255
0.3148530256669217
0.33233156890023563
0.32494751567336305
0.3280098971325841
0.34062153561705893
0.3917908359088932
0.3975615204447032
0.3974458972103346
0.41511745893715035
0.4574764621202284
0.4575560464384908
0.4649716645888529
0.4780266255634074
0.5057997952221298
0.5160377470451578
0.5320443888747783
0.5350565851477321
0.5633753677580844
0.5668708244377786
0.571566994642109
0.56682636732842
0.5713212239829757
0.5678113747813403
0.5838315696828121
0.5856180956548434
0.633260645086815
0.6815568839536038
0.7085145396547053
0.7040808908614581
0.6757264560099647
0.6415294275281128
0.5718730164309671
0.5269766812972356
0.512561244186949
0.4930596870285366
0.46408200116069975
0.439737889130149
0.4619418834901598
0.47996075082050343
0.4675824707988897
0.450033826243257
0.46602722776742106
0.5012240699836777
0.5314335551859661
0.5166141207303327
0.5199458547716275
0.5428168497775336
0.5566913501663089
0.5519572196640687
0.5563370028584125
0.5577044010963894
0.5497580934172751
0.5211820802770206
0.5286133845187418
0.5320657688738043
0.5273529223355442
0.49262141957917427
0.4642704613306311
0.47052039927393724
0.479399553529392
0.4533156449934346
0.4377510720255998
0.43640864331664514
0.44656893262246894
0.44718264854527323
0.4195200095083151
0.4101826900471856
0.42649539357603466
0.4123989744347023
0.40769749955537227
0.4057166497630725
0.3947785357443255
0.4026671259633763
0.384813949917436
0.4041895711162827
0.41570242409728336
0.42020525251798846
0.4037328339752203
0.40114710020230043
0.43303644690320037
0.4511153964446507
0.4668397636838514
0.5068042973583446
0.5080817114841
0.48139602440379486
0.4483129781523547
0.4598236755652227
0.4494453887464879
0.4516689784560858
0.4034548445816192
0.4207414845384692
0.47039614891556436
0.604946554370064
1.0
1.0
1.0
1.0
0.0
0.0
0.34469755724151663
0.27730007472314333
0.34359053391082994
0.3020432261020414
0.29342701587107406
0.29698088597373623
0.36145529851287994
0.33226534828637033
0.35661461182668985
0.35442316764908766
0.4000714412643623
0.4056985043527739
0.42678109543259624
0.4183935741535277
0.45989590689376303
0.4563316863896243
0.4537738732592925
0.4797857968794245
0.5292979646245612
0.5156529775042686
0.5226066700743552
0.5426769959994491
0.5707690361928492
0.5650983518906841
0.5439788593553636
0.5244257694598732
0.5588563308803597
0.5681843982906896
0.5796797565415375
0.590602316188346
0.6571036529705969
0.698562013660976
0.6909255726601728
0.6432351020524889
0.625168696459809
0.5948379672589874
0.5395106793276108
0.48844791798309767
0.48625945862858816
0.47392629727887314
0.4864098706464417
0.5073989873630297
0.5784888165750198
0.6160867106053736
0.6484362415510789
0.6648382598722465
0.6969631822158788
0.6832440158867921
0.6518786772068381
0.6106586934782416
0.5839892214645885
0.5506110972136886
0.5412753075185487
0.4926791389271605
0.47812918744999894
0.4615884492779271
0.4796520359336247
0.4486611029192818
0.4539038201736566
0.4177661373407887
0.3441666045619523
0.5107204673344585
1.0
1.0
1.0
0.0
0.0
0.3602844704828533
0.3297548225362608
0.34071333864655934
0.3016335678069371
0.2929309206287564
0.29471887658108326
0.32350921962973483
0.2874404611900568
0.30521935243100706
0.33633542416660767
0.3669789810389914
0.36222150995721475
0.3845246327870506
0.40334737721754677
0.43230802280435565
0.4376144035740498
0.45807715726981285
0.47717414023779103
0.5246267311600337
0.5233644923331331
0.5374859770481695
0.5453330051791101
0.5883941221194481
0.5928296541674607
0.5937949742699611
0.6062981846582536
0.6599380778212659
0.6960078617923615
0.727082003358089
0.7426377768529028
0.7114816310839733
0.6600892779948022
0.586200561384666
0.5390464065902925
0.5326673853227462
0.5103033199604015
0.4684670902255353
0.4400448934498685
0.4520109550743475
0.4643366434778569
0.45645065992267086
0.45676711796914027
0.46474425463124575
0.487390051204741
0.4788834431606045
0.46176578151543446
0.47753482978716627
0.49255075101225776
0.479800947604135
0.4664692219167212
0.4626455049189147
0.47532040886556864
0.46364151014528077
0.42435370850001475
0.4308770596313793
0.434747327125043
0.41950110589520506
0.4053668244065829
0.38862100632745383
0.40032905815799913
0.4134024691237704
0.396522900503006
0.3726387468269423
0.38641019736654814
0.3947805270692158
0.37778857854369885
0.3750656318497611
0.3849806820140772
0.3815524252600794
0.38893465000963456
0.3737236898683577
0.37414302463409105
0.38823672819300087
0.38367777665117375
0.3681437458452483
0.3839520094666848
0.39377021531495715
0.3894880014192162
0.3816104049246915
0.3760514492148677
0.383843213398417
0.3959784193468133
0.3642007028917324
0.36433930146289384
0.3881215322710407
0.39598951398250365
0.38547674503015583
0.3790573030107246
0.39087805959127325
0.3989154905454713
0.3849682738955193
0.38567889860751237
0.39106564699289964
0.4009856488420486
0.39603502518669176
0.3852546275294603
0.3880250123406524
0.42339610262745336
0.39886215365868793
0.3905897986559671
0.3982779998023368
0.4250947896944147
0.41587156561831734
0.39962058757622004
0.4289598506960372
0.4921294097156953
0.5022734815199064
0.4770841803589225
0.437828807806946
0.4493162835426524
0.47093385412414507
0.4515887344652557
0.39104828081936427
0.42755824659078157
0.4572461430626504
0.5058973507432072
0.7708016413233547
1.0
1.0
1.0
0.1994610203018547
0.0
0.3422520394671623
0.2792858406067996
0.2828240458593626
0.3039404208605486
0.31441473307219353
0.2918654234416961
0.3038826901928517
0.30086486056551487
0.3294458391405535
0.3376367398894205
0.3478422826016526
0.33737785888356087
0.39188478014540523
0.40874956746317953
0.39973739023524574
0.39965920836052826
0.43005918905373014
0.4456580321942133
0.4676713138002725
0.45842653847773035
0.4788758961140288
0.504822613320868
0.5077924244740424
0.488931333238106
0.5040166806637231
0.5136430386804443
0.4983430237534396
0.4793414683116886
0.4842729541507489
0.5047108307139959
0.5539462902632976
0.5821364437715197
0.6478051317755706
0.7159875640464957
0.7354826656159774
0.70605682754923
0.6726478238443602
0.6547364836476921
0.6268777398961718
0.5927980979856524
0.55600807475551
0.5473615282951247
0.5539144028963779
0.5265996790899939
0.5225286365957744
0.5196714666939287
0.5351574522303089
0.5370908826139212
0.5389631419041115
0.5572065938578173
0.59435050165652
0.6049627114922631
0.5933334792936129
0.5988186734480279
0.6268511071573932
0.6167813599950034
0.6218549122368897
0.6046707732804717
0.6104381014745383
0.6137954104654048
0.5879634288610569
0.5586284753175311
0.5705691698361752
0.558942182339085
0.5341992459043355
0.5233418383316255
0.5325996423965818
0.5230830390837695
0.5023362430035644
0.4852560283881136
0.48348133568272395
0.48852078067752575
0.47852056274469357
0.4611823181091796
0.467567253983597
0.47788213474435254
0.45342113919159566
0.4304030381825329
0.4403664124625325
0.45357056384257355
0.4610171597992201
0.43993362043777146
0.4325253863865991
0.43941147462658564
0.45120021511894703
0.433704152579247
0.4213029369016145
0.45586852025577895
0.46887476128599037
0.470314644139225
0.514573609892315
0.5391640585314712
0.5329554271816741
0.496499937545103
0.4764622211688157
0.4981968240345932
0.5129224674251731
0.4650195568644772
0.44157213549554425
0.4755041011573774
0.5125804606482476
0.6222434163129408
1.0
1.0
1.0
1.0
0.0
0.03705602043349145
0.4245291652918163
0.32979749228532185
0.3674525142669678
0.3298709711019227
0.3291240713829791
0.34217315608331833
0.3519033765970401
0.3470996191861023
0.37159566294298607
0.3947748194484599
0.40416954335635313
0.40141985573933986
0.4377230609841652
0.46651073775580826
0.4937678792469149
0.48474102752352294
0.4908265677551162
0.5183193699368278
0.5357374944142197
0.5247423770955045
0.554906086432233
0.5752550004880539
0.5721638933391049
0.5526650569339442
0.5710247414196338
0.5534139180207523
0.570583332700997
0.5569219706315139
0.5381167513908989
0.572948296400421
0.5977878058329713
0.6087152732586497
0.6731807489735845
0.7196215949239182
0.7233805020761631
0.6860148801675131
0.6568065304193074
0.6250746171546167
0.6130457333648989
0.5754783615904493
0.5135425813948509
0.49466124363350994
0.5159109758341645
0.4992048732130427
0.47266768983597574
0.46972636867194095
0.4923859710146643
0.5160300756538845
0.5169288050820986
0.5284495732073606
0.5478117655549972
0.5760467143076797
0.5764265112067234
0.5623452809017583
0.5864980832932928
0.5923414402782197
0.5802417621662842
0.5711756245133806
0.5720289500344011
0.567290546770618
0.5573021239261156
0.5187591113917706
0.523102303489501
