MLII
0.5
0.36510184810468094
0.5
0.36510184810468094
0.1777955104213531
0.4155638828695305
0.4325509240523405
0.26219895776719865
0.3731850080031706
0.41197053152088847
0.5
0.3869877862766276
0.5525171899626983
0.374157218087956
0.5186043355509609
0.2786942029473011
0.4231844963111602
0.3431841112449515
0.5112261090475316
0.4312960904133475
0.5599370411710894
0.4305761662477664
0.5657420290499434
0.46543361911095865
0.6473822119341872
0.5535249446330737
0.6758004860305228
0.6310940359916646
0.7225752629991575
0.7514902836700807
0.8418437295460915
0.9102722077770242
1.0
1.0
1.0
1.0
1.0
1.0
0.912537022463696
0.8776869908015976
0.7675396208354247
0.7893775721051978
0.6643972569751581
0.694553102348708
0.6039723605688223
0.6393836043093204
0.5674490759476595
0.6330529805366396
0.5893952466468038
0.6204331367063267
0.5727754346904387
0.6060197629624471
0.5737554964049403
0.6161424430755436
0.5947499452972396
0.5753279340118927
0.6006763553145099
0.566346511666317
0.5718771213756051
0.5733075498083944
0.5737438064092898
0.548136734473878
0.5392178582677647
0.49761558666657946
0.5453560929987569
0.5284247272727607
0.5366460128972743
0.5017134472236883
0.5216387839425459
0.49888908306436325
0.5317830349000408
0.5224262119299651
0.585807960499195
0.7052006272161713
1.0
1.0
1.0
1.0
1.0
0.3639112345540271
0.3066683097077349
0.432360132908323
0.4091840898811016
0.4010201615316163
0.3682858251470385
0.3613587462244442
0.342078711085622
0.3501377557075267
0.2871130935944228
0.37647682549315553
0.34165958453295053
0.3800691566092526
0.35008587605376834
0.38010145578491794
0.365887661771775
0.41400409649432107
0.42333465240254575
0.4726995243160378
0.4439699972573674
0.5129707061628461
0.4932711350473241
0.5280853678812442
0.5048006557301784
0.5437401755476615
0.559604118286967
0.5939691602664037
0.599293827957178
0.6404916007609469
0.6653202314042848
0.7003255127513965
0.6946954829693928
0.6588851120815344
0.6528993741417403
0.6100499688611913
0.5755406273628934
0.5111856548528839
0.5334316198063644
0.48284838458346524
0.5146208613722612
0.45376995693774314
0.48894993973891765
0.4597573355418244
0.5126768916458885
0.5042327601192991
0.5290525355623832
0.5003065992442179
0.5191938327278726
0.5143713817708826
0.5248266245711093
0.4708040923035261
0.4870313929012665
0.496960950163746
0.510173029515369
0.5001759026414495
0.5109540083116932
0.5453781340369181
0.5193998562857273
0.586680470976235
0.5450182075860639
0.5896963532224915
0.5597403834027505
0.5768185212167666
0.5170977226749595
0.5527642147069627
0.5141349873593984
0.564581915285628
0.5054916577882685
0.5573930738087194
0.5109738274218023
0.5969913368200227
0.6958465287376016
1.0
1.0
1.0
1.0
1.0
0.7079758418103342
0.36479793280125605
0.5575639628876008
0.5333706744698403
0.4787171624806352
0.42630660945512633
0.41828243975566143
0.37157544503989587
0.4144683578000519
0.36583775581031797
0.420412218398006
0.3620926500406149
0.4200985289056445
0.38128213051560256
0.4434360427024693
0.4149239857928572
0.46323152883785107
0.4419970356120964
0.5237156318600757
0.5014330480436648
0.5163874771069387
0.5284753666174598
0.5563932696614382
0.5773342184177215
0.6104469686932997
0.5989442926785262
0.6179958718458695
0.6030582004706921
0.6498370064058836
0.6664838715955543
0.6715079111476638
0.7394858418466315
0.7466894571225359
0.7890704595930217
0.7464024574544545
0.7665831190658484
0.7161226082609362
0.7077059318108432
0.6413491862833128
0.6159056980984159
0.536678318724251
0.5613796685548693
0.4915982730809579
0.5370920291156083
0.5230876852824534
0.6508495637740698
0.721960252569212
0.843968271841044
1.0
1.0
1.0
1.0
1.0
1.0
1.0
1.0
1.0
1.0
1.0
0.9283651558903454
0.9726977089385404
1.0
1.0
0.38087282158177077
0.23613169379366586
0.11743468351647617
0.1062937510662306
0.0
0.017594408596747435
0.0
0.0
0.0
0.0
0.0
0.0
0.0
0.0
0.0
0.0
0.0
0.0
0.0
0.0
0.047442165820939144
0.04908634465693469
0.14560436272526728
0.15851107706568218
0.25984992595535095
0.2761032389646476
0.35921532101393333
0.3534048036094501
0.4115838122375516
0.3983996516653487
0.4288303462399353
0.42075072830139765
0.46639156186795583
0.44217637317100084
0.4412527324018679
0.4563744319719246
0.48671449732584166
0.48586275429203896
0.5059345793024158
0.491383826878981
0.4812610605422279
0.4775730951603398
0.4658020396038287
0.4999313981071881
0.4887061253094898
0.5207617812867278
0.47094050147361627
0.5305526381780299
0.500205670855603
0.5151923887450696
0.5017077252851802
0.5135999516886958
0.5006499014873541
0.5421356373650199
0.491338121868884
0.5402097959880099
0.5196668491751733
0.5237349129992149
0.5009536791351106
0.5
0.5007841743538266
0.5162284082487708
0.5022662872754532
0.5165525142163278
0.516080665482601
0.5110634397678608
0.5322639029404451
0.5146011267971079
0.5179677762956661
0.5145355940227715
0.543961604490457
0.49964902916987447
0.540091732595254
0.5067376272374695
0.5139951186815104
0.4680057458407421
0.5160999404422644
0.4616937703858196
0.5240802789113606
0.4869684899177196
0.5303156172538648
0.489906263294139
0.5479877329253497
0.5194418240175136
0.5562711239079161
0.5226368404305746
0.55055806472995
0.5354954951930938
0.5276069461197641
0.5211260746185769
0.533847545451129
0.5771197726193804
0.5693490602032825
0.6082607594689223
0.5878870821958417
0.635536354643395
0.6108170927966293
0.6647172780210558
0.7682515058855097
1.0
1.0
1.0
1.0
1.0
1.0
0.4141355108984525
0.4876133883726014
0.5580775193133383
0.5027378761080916
0.5059465077511314
0.43932817728547446
0.436824048076528
0.42021331389974953
0.41612045343813475
0.38977392412661305
0.40331117388538784
0.4156619998873142
0.3923876328562123
0.4226479391982993
0.41310415509871473
0.43373988065662405
0.42174682615464915
0.4750322741414216
0.4583590733646522
0.5206475569037263
0.502153887148131
0.5334284764395847
0.510654272595565
0.5573979976767673
0.5554361215150593
0.5845513404469964
0.572513117975491
0.6134229860086843
0.5660708948491726
0.6171478445336953
0.6175026420753569
0.7080239956604787
0.73051181129242
0.822007028133504
0.815044407267792
0.8778718918993207
0.8481156401443739
0.8485174813423371
0.7867363582105737
0.7945624905474048
0.743300027327993
0.6993566398428133
0.6499335681297136
0.6407344068809315
0.623430467989851
0.6098767361237563
0.5995061650396452
0.5805210340870384
0.5903995197100103
0.5928892781706503
0.6212023783297098
0.60558854654075
0.6430303276420288
0.6086278543631783
0.646091033423243
0.6159659335041956
0.6367844389185896
0.6040243037085254
0.6259690754846409
0.5944424266852819
0.615464625256373
0.5754363588228364
0.6151856563935952
0.5556329603521774
0.5513775106796794
0.5729043341168407
0.5808514129909865
0.5501832069151813
0.5620321567729323
0.5640441412426146
0.5542686296957922
0.5691275216693465
0.5599781314684795
0.5897826608157771
0.5521211598610246
0.5695083615202323
0.5620871470837457
0.5791370077084286
0.5173008717422165
0.5586756332635727
0.5069354339954807
0.5587723752789807
0.5252936389918386
0.5594602712758757
0.515219476679892
0.5612172667573316
0.5374005728415219
0.5954534340072309
0.5573012452185686
0.5796421164293447
0.5674490759476595
0.5521797456638221
0.5621862041771128
0.5919422539465655
0.5867835295955856
0.5752274127455503
0.5766279518899323
0.5638703174827989
0.5911380021440615
0.586806491507229
0.5921117641837709
0.6033719120290562
0.6767466923685169
0.7280357159587811
1.0
1.0
1.0
1.0
1.0
1.0
0.5651286316639522
0.420457684949465
0.5676193878558808
0.5401052827429589
0.5439461211251375
0.47209685728938167
0.49458966131669435
0.486749601816039
0.5115554680890412
0.4975193148676751
0.4895996567382078
0.46512511830879655
0.46943464172290916
0.5104455253974431
0.4753242836266242
0.48343492352347006
0.469943135393948
0.5020549303516881
0.49856494413526453
0.5108344997020755
0.47532938291892357
0.5000391862381488
0.48291287228456603
0.5684610935638763
0.5466778469099446
0.6007774018281781
0.5828323269076254
0.6067793749386581
0.6168411637401687
0.6337090972801072
0.6476133718013362
0.6718313256603287
0.6601654764739686
0.6796282567245162
0.6938101501779445
0.6955937559632553
0.696632183784574
0.7222902322434195
0.7279332318045909
0.6926933910779475
0.7119562189530436
0.666048327777497
0.6570723172845194
0.6109971252006112
0.6439673816164012
0.5753073202073752
0.6092767481546334
0.5621747544609497
0.5911882830442893
0.5552424596916639
0.5782077470359313
0.5889252148291416
0.6564162626749838
0.6375986268844602
0.7393966501817038
0.7888811109605023
0.8507060766985717
1.0
1.0
1.0
1.0
1.0
1.0
1.0
1.0
1.0
1.0
0.9948553389589938
0.8794009885348177
0.893594848966455
0.9648493487801764
1.0
0.7134424689754558
0.350727052346687
0.2395577774707302
0.18123164707234118
0.11060424794096413
0.07321092311723856
0.0448930849472049
0.029850017720962806
0.023854233734391883
0.003742920403176253
0.0
0.0
0.0
0.0
0.0
0.0
0.0
0.0
0.0
0.0
0.0
0.0
0.0
0.0
0.04918881778136974
0.06745647613130687
0.15928175208729348
0.18034755191243365
0.2674516846415261
0.27681953165150575
0.3664906659413256
0.35639668516278367
0.40582827198110527
0.4205527068691367
0.4352601261924424
0.4465994011545672
0.44356067106520863
0.4470478191941812
0.45677286853286614
0.4535424487532767
0.4537979399814837
0.4675075129887059
0.46491551426561467
0.5031133436808267
0.48886081802538384
0.5018815454808975
0.4599190205630655
0.49749032881527977
0.47066830841562934
0.49288477446300893
0.48091841490210996
0.5049790182334783
0.46786166840689153
0.49040189640242693
0.4599341340437409
0.47919209227178977
0.45621874232027987
0.46276463995132877
0.4337556145873987
0.4814669234748532
0.47397034189354115
0.48594735097544123
0.4768530303287564
0.46693104335269575
0.4750004416836198
0.4872924244169353
0.49321560175378154
0.44539536683094233
0.4755170028545986
0.42533725790926546
0.46600520083682395
0.4576900792269051
0.4871301435155283
0.46576103743364944
0.46789505813630994
0.4494453604296077
0.49342105800169556
0.4475019441374548
0.48082154597334237
0.4412971446252535
0.5056459360588111
0.48017933797473067
0.4966413698368849
0.4777361723463144
0.46739443719579565
0.42814839541536165
0.4714483275426488
0.4615876524977976
0.4666092432820667
0.4753968039708901
0.4608262303530041
0.4790591810818189
0.4764700914645486
0.47448285987777544
0.45192905264888805
0.47026996813814037
0.4521430910226898
0.4909209021692228
0.4745507265783937
0.4572868275395615
0.42596470803863246
0.5071151701170014
0.4812753069384955
0.5304776255620762
0.48223815641531953
0.5074781525672826
0.4859179577424456
0.5074242707838794
0.4924716531822428
0.49977359508393526
0.5010575935531094
0.5128996352378038
0.5077237379346895
0.5253040137917656
0.545922205341155
0.529059006698196
0.5851121592444587
0.7402530547622215
1.0
1.0
1.0
1.0
1.0
0.7045084974420375
0.39700498367721815
0.4997649008748993
0.4967234346075209
0.47865070097540574
0.4652156899227934
0.40473060447617903
0.4316225604207841
0.38507507690213094
0.4235789609354007
0.39242443610298955
0.41581365676647675
0.3933408233150339
0.37160297034759304
0.3687569316748346
0.36864017730810156
0.3924265199498067
0.3905025943359247
0.42845304180830357
0.41980557019715004
0.4529060109105775
0.41469533808864634
0.4684644982819002
0.4568569134774152
0.5039857342353464
0.5053339726223793
0.5805143756573257
0.5534368158266235
0.5901161468604323
0.5847010546576572
0.6368350396047472
0.6237284808573859
0.6709343874270421
0.6570047646721711
0.7211338956042594
0.7135873154576273
0.7489108501142377
0.7497587301957257
0.7204943287138246
0.6820610605414161
0.6642766928408956
0.6379651990473574
0.5974729475038807
0.5759792766817979
0.5420415796145603
0.5638720197885012
0.5389113032881252
0.5443991251304501
0.5156459954103577
0.5396060234093212
0.5162899723144591
0.5489930679152436
0.5299656887434763
0.5805374980682775
0.5597498515140924
0.5831268891710655
0.5364928781450746
0.5781925206613212
0.5743975060368554
0.6085821736525162
0.5917816703841192
0.5723617930307252
0.5334795606205217
0.5473155395228614
0.5558779330830956
0.5536490652095403
0.544926736382088
0.5447712030857284
0.5440786404546515
0.5027768156856723
0.5313055200979175
0.5174762865715079
0.5391814314137398
0.5182973146743518
0.5677378724111765
0.5205288496530017
0.5608473692555231
0.5324855151068146
0.5540526773555169
0.5010632226143377
0.5701283853495202
0.5188278597415655
0.5445467127935266
0.5438422688989524
0.6537931113922146
0.9162561243805302
1.0
1.0
1.0
1.0
0.5701452145343068
0.30614830057099435
0.4826033715960598
0.5133187897721574
0.4748884568977578
0.4607020597492433
0.4167506586113334
0.44921311096401356
0.41858984862509213
0.40996439798438866
0.3938340028476744
0.4325509240523405
0.37859958022931234
0.3967298651282606
0.3976750318312096
0.439732202092472
0.4303044720965071
0.47484914957796914
0.45253818519994865
0.4937890887461006
0.462574547702037
0.49643638645714017
0.530166307998895
0.509468113723862
0.5472433282518964
0.5745984264922154
0.5985923534456803
0.6312666601587622
0.633795878980235
0.6313324529272029
0.6732614225854027
0.6478295203418554
0.6962281448090584
0.6602534983139835
0.6908899365366908
0.634182776309471
0.6189632684637065
0.5581404764009589
0.5765064238945664
0.5263864810286936
0.5176662000409549
0.4878193021837095
0.5049284051808269
0.4637002448709041
0.505366335881689
0.4940055824540468
0.4875871659607263
0.5159380071793958
0.5434432650052786
0.5219180895548724
0.542423600964459
0.524532318988567
0.5077248758338087
0.5340420715708458
0.5082318262854287
0.5041801983620953
0.5124620819371093
0.533237587633476
0.4964175680193299
0.5238807301521915
0.4936193626577433
0.545432508267175
0.5076824365178388
0.5357103010264506
0.47900861946699
0.5279168554948854
0.5046472940052762
0.5212325005813654
0.4673211392923024
0.5197486454648064
0.5044736101058882
0.5072019137855843
0.47098354188141267
0.47852935880859854
0.47594488028104553
0.487702396783351
0.5065142494304768
0.47925658366964685
0.5067169350586839
0.49100286246897273
0.5131029955450194
0.49451782457622206
0.5031590369111454
0.5059946051675072
0.4942461413243608
0.5084141951490022
0.5408535390295331
0.4947020719071979
0.5592816383826492
0.5236456675192591
0.5466208954881318
0.526673326462561
0.5803890412078773
0.5535922656357489
0.5572341236251166
0.5878372150105974
0.8471181544665324
1.0
1.0
1.0
1.0
1.0
0.3752684710696948
0.3729737428561976
0.487683448480439
0.4771833799240116
0.44489159034731607
0.4307759896189166
0.3929008535205815
0.42320955822501993
0.38437296894276746
0.4266295787420467
0.3847891581952349
0.442035037088348
0.4041134064707574
0.430186796628249
0.37554550527041214
0.4250768611095054
0.4266927814429534
0.4464896521374621
0.4474504397270517
0.4733593134533268
0.4705115264290972
0.4903492030411202
0.479648446475368
0.5500668246480472
0.5954223032017122
0.6040663293344073
0.645813291617879
0.6497546612853342
0.6925906033338374
0.6743887860673937
0.7246655116186208
0.7018486203888767
0.7336814002524955
0.6945451064543402
0.7133579234403188
0.6617928029325414
0.6453805316400228
0.5850280259378309
0.626881953992114
0.523850209095687
0.54525401705089
0.5119207576779111
0.5251047287177054
0.4998962018153068
0.562908274331758
0.5638565894679228
0.6919919051385361
0.7735593428414507
0.9169471592053704
1.0
1.0
1.0
1.0
1.0
1.0
1.0
1.0
1.0
0.8954333124474173
0.7284507762276673
0.6494513598385219
0.7876336404507087
1.0
0.7901638952110789
0.3017795885784232
0.22851415584880627
0.1254005825391344
0.11084468985584994
0.03894851808076512
0.035887953798109606
0.0
0.0
0.0
0.0
0.0
0.0
0.0
0.0
0.0
0.0
0.0
0.0
0.0
0.0
0.010473275983761443
0.01396282898143859
0.10431848887993263
0.1117095854159389
0.2022651278300779
0.2508547664707287
0.3218697995662776
0.3406916584419215
0.3930503245012146
0.3568619632646075
0.3848587649019433
0.36773194408494153
0.3773417453046305
0.3647915171440713
0.34851765930112205
0.3473486860687508
0.388258216764958
0.4016071763472044
0.40138370867054485
0.4393239157957337
0.4067775193581739
0.43306855143064105
0.43335069508464585
0.4502314810704912
0.40021026180192776
0.460821475162421
0.42563751602402855
0.4338668010903639
0.41905531889000064
0.45347647719348966
0.42526747265482945
0.4414779557745895
0.43026488918004346
0.4515886193905273
0.4274812983154875
0.4312601998219773
0.4225838617820045
0.43764147393909825
0.43576075133812153
0.4446564661322304
0.4249695723721256
0.43067720220202155
0.43965933628159454
0.43453828794842037
0.4514000316248022
0.42944774819681114
0.4502387268044906
0.41104918527096623
0.45421474051581495
0.41647691717750196
0.45071129933636583
0.43012412378515197
0.43794395455829777
0.39576210265067957
0.46441794500064504
0.43949988689670977
0.4530089928831583
0.43365534043411635
0.4665955566849818
0.4325509240523405
0.4431427506395519
0.42095713908456844
0.4555751740249317
0.4415254077089683
0.4495736097039148
0.46499117190735717
0.4615905186465997
0.4653164511630202
0.45574377384562614
0.4782920235572169
0.4975184430762448
0.5218471565625377
0.5475204878244185
0.7552450322967823
1.0
1.0
1.0
1.0
0.9451993567712332
0.29361322542536283
0.38554937560156366
0.45804187985702705
0.3815526162028401
0.39739081366062695
0.3738003368413521
0.37771197093487113
0.3623578669719155
0.36880208962245264
0.36081847552416546
0.3881102451759159
0.36471316653344055
0.36717877561379425
0.36512364162975497
0.36032382506777666
0.3551823074862561
0.3595260080317143
0.3774362353826903
0.3776758211241293
0.4247774698143442
0.4113651989728956
0.463437823444384
0.431735049342577
0.4786025598976188
0.5110085900961511
0.5770034506595687
0.544840805189981
0.5601113028877429
0.5500325970052197
0.5915529729426863
0.6106807770688414
0.6484026209587558
0.6260356716574897
0.656655271233896
0.6573194399132805
0.6571542671667567
0.6617443462960892
0.6196458545885839
0.6038467638761865
0.5681805799806192
0.5280521586281492
0.49071057874565954
0.49511543051850626
0.44208054155280907
0.4585156107875064
0.43801736959323223
0.4719360541974297
0.43890220450976986
0.482254617241071
0.43937245344394815
0.4943237044819826
0.46823061123305765
0.4985310262908328
0.4896671819382717
0.5395941684181406
0.5060824729109723
0.5084520285955938
0.4902596522500936
0.5384642367893584
0.5233957427941431
0.5071426760697578
0.4987221383199539
0.5006562441323927
0.48276448835051344
0.49768243092079556
0.48099738882265586
0.46335347234695823
0.5183792285419114
0.46906724070529415
0.5036498595545651
0.49272365237293714
0.5000989387346509
0.4714832152321907
0.516348902343215
0.5120127531064924
0.5259576283275871
0.5971177826710843
0.8761045290729829
1.0
1.0
1.0
1.0
0.9335624851927588
0.21018638889742128
0.2810485868251564
0.41365290641053465
0.41152404521151853
0.4042604425085263
0.39008883580872716
0.3773322059266192
0.36720141484884294
0.3556527391789424
0.3681662283180744
0.34414051728193346
0.36942522041493014
0.34384841742726274
0.37310333362464476
0.3450289072259642
0.36085885863469236
0.3597061210291375
0.39786609466103917
0.34876467048920284
0.39359974030549505
0.35657846248895203
0.3825506864214753
0.3785644822695173
0.4375863841178463
0.4538164989366106
0.48005709970482585
0.47235455787067826
0.5244122628703001
0.5158848452404212
0.557294588682632
0.571393856593119
0.5795493917349096
0.5859501841526
0.6008536499963497
0.6029610064138637
0.559714052515052
0.5418719719062535
0.5042292648663113
0.47902495643887216
0.42741638129293413
0.4476378249205949
0.376893772553081
0.42943887177361706
0.38538887472851435
0.3912797861712283
0.3831411153171449
0.41479222264229687
0.3995101575076051
0.4264444790066769
0.4047381181775277
0.43491232779032085
0.43451738252371375
0.4667357473565411
0.4421931145280785
0.44862952555050717
0.44616001618439316
0.4438636634218652
0.4522216816620902
0.4463383551249079
0.4462510057691027
0.42746167527890605
0.45511448130372034
0.42730853306648814
0.44670715654648846
0.39654378702611864
0.4217036937233659
0.40665767414995513
0.4466477250999482
0.3971719283554088
0.4168119871409829
0.3810724746020112
0.43513960050703293
0.37625280655516924
0.43053229157397316
0.40640884484679685
0.4086764787329479
0.3916240849924158
0.4313960076235775
0.41002793869468707
0.4169717742755338
0.428364314724917
0.42052820924805434
0.4184480612555662
0.4179631186708123
0.43470351327146545
0.41308974332554227
0.4237992239842515
0.4032756714016211
0.4213886660663223
0.39087506463227306
0.4383773204645154
0.3981402053323576
0.4180365180728186
0.38443261257517125
0.4303709577052904
0.4215888196988195
0.43377341911723477
0.4298170946925651
0.4488679112784677
0.429591171628074
0.4443605493181807
0.42754809976635455
0.4519593067352661
0.4425439668737169
0.444471703175439
0.4457903306816176
0.4487846108520116
0.4488240812990506
0.4608297292305149
0.445171519579747
0.45871674843814114
0.4794348225421694
0.4605143643193121
0.4676640228619287
0.46711766344068
0.503533020674528
0.4677680503939922
0.4853284432173181
0.4709313362612712
0.48476871291098333
0.4826174867763351
0.5250218302925965
0.4706245513429871
0.5169298657920911
0.5181710642902525
0.5226266785463599
0.49937729761543104
0.5216903739973391
0.5185213839774467
0.5230591068504151
0.5109408452709675
0.5197676133123907
0.533857995431833
0.5371409289382681
0.5132057822868343
0.5186866212472679
0.5631974554586254
0.5260239503244051
0.5335586577950792
0.5209542526835503
0.5471811433267665
0.5317853696607079
0.5589520150083156
0.5204157673531822
0.5745560783051344
0.5638450731026714
0.5822164819032001
0.5596674267447034
0.5841488050926322
0.5679095550647888
0.6048761760298947
0.6055274617465767
0.6222520603378555
0.656786691422553
0.909977601650304
1.0
1.0
1.0
1.0
1.0
0.47677206286956375
0.5020253920408355
0.551866943248726
0.5272973417438048
0.5162910771707534
0.4923588380419776
0.4697176220419668
0.4856403456068035
0.45276194317950436
0.4934129986002612
0.4478065887206203
0.47683509816510405
0.43973794868683136
0.4690035372145801
0.44364995083083025
0.4522224543629319
0.43672606499753386
0.47446347558920154
0.4580352933637572
0.5138506553805767
0.5219803519012125
0.5320632006457646
0.5712806864657156
0.5866029179868975
0.6038794239121745
0.6276412098416082
0.664105075349183
0.6901700460471274
0.7353768058264347
0.7253622386900156
0.7620413940932279
0.743288749011128
0.7900026732665576
0.7496002010391146
0.7909936208307506
0.7537547311659147
0.7717184174574341
0.7256474757620799
0.7236705594721995
0.6651798273803408
0.6697577585188074
0.6082409393389344
0.6101924503819983
0.5650913113501141
0.5844837127680951
0.549370373976312
0.5499556237939375
0.5413219600385735
0.5545472238361436
0.5479720681858831
0.5254126995208444
0.5348221114526726
0.49859127748240234
0.5345867671781704
0.5206399617389442
0.5560685922470757
0.5467315557284671
0.5826612430580316
0.5503455285897967
0.5768233298082814
0.5740284705515861
0.6043660789575711
0.5595355671788684
0.5781647337268915
0.559091224566777
0.5677833385588997
0.5562001677627469
0.5731642398449625
0.5435350355024269
0.5624440574108505
0.5547785269819681
0.5598011352820915
0.5275297498460617
0.5203284213190402
0.5226401612797249
0.500342783909083
0.49339386982378963
0.4891677728916551
0.5065677130441834
0.4630377158986737
0.5107465194710248
0.48794819017331703
0.5172090356971387
0.5056425174653142
0.5278114483053369
0.5396054532751526
0.5831780116175412
0.5753081818163229
0.718774252306871
0.9404257822582978
1.0
1.0
1.0
1.0
0.8743047468688909
0.21418268210772942
0.3674476436672013
0.4250071460044359
0.4183669690746223
0.41672836079072617
0.406769675550939
0.3946382017169988
0.39412133318388076
0.42531577434985157
0.4078438958840446
0.3868046734782424
0.37309005689810043
0.42016674172685137
0.4076588018902232
0.4415702151945421
0.40017184019891133
0.44027059429351895
0.39141169261324704
0.42774649458842917
0.38564861304333187
0.42858338709544
0.4283649214676405
0.4605060881991888
0.4672895301715525
0.5148020654124623
0.509872463652418
0.5684616944583932
0.5837919139001799
0.5979352333009058
0.6510843636976222
0.661477614162644
0.7068646619768161
0.6956314217617969
0.6856160083865264
0.6584086029060764
0.658779702648944
0.6021626343293229
0.5978080570076573
0.5467419333981363
0.5450475464486341
0.4545952755381328
0.4726400750219364
0.4037674021992889
0.4254361313689031
0.3815042425484408
0.3935743718813597
0.3772889444508781
0.3950802297767318
0.3855180928737397
0.4088737619761223
0.39631512214002035
0.4270806643289212
0.40207717391160724
0.432160385063054
0.4363788825875175
0.4430462023501044
0.4465259888263822
0.4299650746822973
0.4553305417358559
0.45875208907368814
0.453368032085418
0.43311089083322285
0.4437687144271485
0.41409699648906423
0.4605399524068818
0.4158061911843404
0.45204971639923297
0.41627802575294026
0.4400201644677514
0.4136701079664976
0.41646387119426753
0.3988361572477318
0.4059012667707041
0.4030005837313115
0.4219877602284031
0.4065466930027129
0.43476391002262427
0.41805005838570003
0.4074861026548572
0.3969458659990791
0.39953249565713467
0.41336833053832106
0.40671958348319037
0.4262388769193211
0.4229467158693291
0.4375309395415995
0.41519621986080457
0.43292525999902426
0.41742453261050994
0.43230631125129887
0.3959749006062948
0.44390049991343883
0.4119571998195385
0.42789890791997587
0.42577530542524533
0.46460557836331207
0.41663631179750504
0.44342307462093145
0.4361079650848807
0.4608156971199164
0.43882884665167865
0.4577624947004336
0.46238245577198595
0.48931553008449047
0.49620904727449816
0.4884764345663335
0.5157124877221818
0.5231615245977201
0.7099001268528999
1.0
1.0
1.0
1.0
1.0
0.6359103558704382
0.30976127299028805
0.49059854024257427
0.4179709615247794
0.43598295489604677
0.38017383171069935
0.3988906403185605
0.3554159450317323
0.37667452650538535
0.3467942597302883
0.3687712069090786
0.3548935434692527
0.360832842456268
0.3608058247120599
0.3718402943246698
0.3443277696385749
0.3571414727776486
0.3731452419562966
0.3492079001144991
0.3905889126882996
0.3760616983336951
0.4218755792731893
0.42161024666663716
0.4865007614296273
0.5022245511659598
0.5502347017856977
0.5338703376751297
0.6066689960438382
0.5876775652741422
0.6242822641525805
0.6004035798536138
0.6366757683114292
0.6166022078889866
0.6313310042583806
0.618718730028049
0.622489039292532
0.5730468059478484
0.5739799192609707
0.5519592994505953
0.5284559963672135
0.5068214010784309
0.46325072158956326
0.45871309407125666
0.4221200582011866
0.4279308691151
0.3780082601660756
0.38708369454161373
0.33359604354846695
0.381885189169075
0.33657427450776056
0.36260789692464945
0.33930950790509334
0.38111337094636155
0.35864100858677145
0.38181235586281026
0.36567767620480707
0.41628166143061984
0.4264799990232345
0.4508711263614086
0.42898113455075454
0.44745005791170545
0.40163840510828147
0.43443641812167577
0.39546933551694985
0.4244579282144711
0.41876603074394153
0.4020764711187198
0.3763115617896725
0.394872909061008
0.40780180706098496
0.37063022788612476
0.3739481930234919
0.36633460345223623
0.42139289772288147
0.39897571155018413
0.42130368241889515
0.39067298818460194
0.40856837809394575
0.37513383360750807
0.40177540194216527
0.3607150933906375
0.41098510386348847
0.3614790822785595
0.37947410323916675
0.37019501415320805
0.36767933142250564
0.37469589603391873
0.39973547801679893
0.39515128251372716
0.3829793374750752
0.39921046682516154
0.40268563138363966
0.4047265395191023
0.40949980480563886
0.42884495041550624
0.3969066000437421
0.40812250200280725
0.38943017938783314
0.42487582339837615
0.37554265360863404
0.3952112296812044
0.36313225764324125
0.42152484649636407
0.3787447992211147
0.4295796090390473
0.36990665361173675
0.41023115632942825
0.3901149420275687
0.4161448228735868
0.4012430494045261
0.4361774578359013
0.4234636345776642
0.46493108951122997
0.4468484030273374
0.43748401175729307
0.4452101573575951
0.4672124461412677
0.4818926259527325
0.4741074425324692
0.5433548116861091
0.780987923934966
1.0
1.0
1.0
1.0
0.5328693443113413
0.23759716692989202
0.43860269159113213
0.377034941693507
0.43522313088059184
0.3815885998033736
0.4153680628857053
0.36281818268661076
0.3771509963717429
0.3294293285821331
0.3594014509158354
0.3083236946699099
0.3365832817796742
0.33111354347263394
0.33675822611087625
0.34255838631749047
0.3671594286593386
0.38395589145095393
0.40358650120115636
0.3917152989971771
0.39448795492162053
0.4648971805558431
0.44897887847720275
0.5006556774852846
0.4981492904109503
0.5232104090516787
0.5186835784263909
0.5645702975114195
0.5467316085693221
0.5871746374597666
0.5836742630191368
0.6224301661142494
0.5963995995151723
0.6127414431388565
0.5968081854730511
0.6263626453075188
0.5801692583320136
0.5717889261839184
0.5241921536259195
0.49767729656340604
0.47618687438845175
0.43065043063220054
0.41011951980123973
0.40391164239259264
0.4045436366330912
0.37747288037890164
0.4236482191623411
0.3996403400871862
0.424875538256694
0.395615709001928
0.42887709655746004
0.4202002973712224
0.4629797562171468
0.43588652897973257
0.49124881800471687
0.4451157875404947
0.47140741511106465
0.4397136991780452
0.4999218185157227
0.46525368184786897
0.4851995637899803
0.45811349363767767
0.48776695979561324
0.48209851295444806
0.4864703444320099
0.4745739584111071
0.45984233736671287
0.47540736900067115
0.4713582677860949
0.46852428281012903
0.4557601563006138
0.47870694021930227
0.44044970396559446
0.4596579080213619
0.4557785056177249
0.48378461005609746
0.4582129887624296
0.4805245330580215
0.4505871293999523
0.4978519505784963
0.46724996117202827
0.4952900052797863
0.48292431416305004
0.4765854410645803
0.4562485242474265
0.4887236872081776
0.46128144159110607
0.4846730522225551
0.46217157199028336
0.4611217918545557
0.4634721526370346
0.4876043178543898
0.4603377730344195
0.4670420329764515
0.480267247227232
0.4686494231656987
0.49987234093789573
0.4870444857144891
0.5142149807376432
0.4758205403225064
0.5476253985537372
0.5063566140727108
0.5272124933759648
0.48149078091431763
0.5384107460643426
0.4994717349342307
0.5060369529698046
0.49425651140754506
0.5312657832697223
0.4984212213603724
0.5343759882596417
0.49030350392793
0.5401579386458406
0.5251156750796389
0.5345642528447895
0.5736689842259791
0.7593610062696001
1.0
1.0
1.0
1.0
0.8768644239084317
0.31120058891618996
0.5308208671878841
0.48187327042807204
0.4720296129285673
0.43371753931193135
0.43608795588147115
0.41042666312445303
0.442702940032334
0.40654558486056247
0.4564678071004494
0.4300543885505891
0.43822999445662747
0.400610128377003
0.4447570742131437
0.4426817665040435
0.4526539148464236
0.4205728427396428
0.44674559880554376
0.46371467022004714
0.4732043872235807
0.4947594019227795
0.5376414729290858
0.5575139483988011
0.5730426130031001
0.6246082903768211
0.6564292503034692
0.7190720931402307
0.7322451294503133
0.7706312666496544
0.7465797684836659
0.7744885730664628
0.7421193720898692
0.7246740346087216
0.6655330849569872
0.6569673996996412
0.6174769113773309
0.5996672165683072
0.5133667444737917
0.5365743841243686
0.522356211373479
0.5112073777723403
0.48913937539852903
0.5032840259614532
0.47731701065503424
0.4601487133647244
0.4792177625985601
0.44445957894797683
0.4707497013411392
0.4888328028306323
0.4739119550713264
0.4615959135125462
0.5110314792728031
0.4621178604958126
0.4944996314924756
0.49453307997160223
0.5374190483118538
0.5049061164872416
0.5397881652224705
0.5194887237000418
0.5583353794253328
0.5196218560219922
0.5391752134881969
0.5007086752641488
0.5105245249355146
0.5042816395548914
0.5097711439081273
0.4960275911752906
0.4759615424162383
0.47479305993544446
0.4857233842351776
0.4883949141345104
0.4977000403745266
0.5107209336104026
0.5119501248925252
0.5178398207886984
0.5152574219589438
0.5395114833423799
0.5285765346302614
0.55292099707224
0.5235329102031623
0.5245200119326431
0.559006771742288
0.8534356126979358
1.0
1.0
1.0
1.0
1.0
0.2594476859456025
0.30423456334932186
0.4711639855357107
0.4454670755362626
0.44258189468941056
0.3978730227271653
0.4008726716062519
0.40277019690231863
0.4017358080612644
0.40739016309746673
0.39902432151636597
0.4022033991073909
0.391871070533345
0.39551102026596113
0.369703435730792
0.4225388194228044
0.392433887800266
0.4595814095839419
0.4254324094085885
0.48244019953306116
0.44634562412671314
0.5034237313395854
0.5222065689357105
0.5576339964596376
0.5400598353236665
0.6287980757535051
0.6501485659286277
0.716400017735751
0.7062047891888383
0.7319218291351979
0.7083518222360745
0.7201736420836783
0.7300891918062311
0.717767852967372
0.6708430376997923
0.6314009219910636
0.5760472113382521
0.5302940701368806
0.48957939888442753
0.46378759462752417
0.43985401141667946
0.4107888889919521
0.4629761386403306
0.4429532711903361
0.4647091062409018
0.41306020325519943
0.4501745913710874
0.44093239414351915
0.45690471274283795
0.44558815907196775
0.4879632455384688
0.4548379360928233
0.47970762327393485
0.4775348709318691
0.4817866699005292
0.4978487801855417
0.49503365929637494
0.48512811606657
0.48748842485815225
0.4919132949389427
0.4842473650494382
0.5023268237543332
0.46594853412743936
0.4746441641276962
0.4610298520902341
0.5077902122603313
0.46163907734823334
0.5130838461664424
0.481418905715742
0.5180688035186447
0.46902758900274505
0.5043712057722911
0.4810619214954258
0.49773618021119886
0.4739880965715189
0.5002619197227468
0.46355495033878846
0.4704564069742225
0.45374065075175957
0.4697881770474348
0.49906751418435685
0.500106762191974
0.49740388403939073
0.4825186830580983
0.5742904826480306
0.7127718748123444
1.0
1.0
1.0
1.0
1.0
0.4375663594031118
0.3681118937427685
0.4668586591501437
0.43238218369860776
0.4179894224747597
0.42107877101137686
0.38443318767854356
0.4151628593448217
0.39193045881161837
0.40601461708622155
0.39202636177126693
0.40955286016192016
0.36057580216564766
0.3917539266481364
0.39355707167216
0.39458584825837406
0.3941287567598966
0.4200108965525818
0.4191855961135948
0.4014956135653767
0.41851992125076265
0.43741886736511726
0.4788951492113611
0.48008687164747404
0.5333070667257453
0.5227766727079018
0.5908902414608709
0.5816727863124707
0.6478080093944675
0.6415169415739091
0.6746388174090976
0.6786617648664208
0.7331146321584511
0.717155549995776
0.7242865442254279
0.6603807145927181
0.6794375407307607
0.6233025791976664
0.5780957362869743
0.5289920082754316
0.5244654032788384
0.515188931355602
0.4924974984446255
0.4858698676635232
0.48103262041868816
0.4830632107207344
0.4588554616296131
0.5027914292383786
0.46478998026576146
0.49591287205550605
0.4981904189066402
0.5758863619940507
0.5909976247299681
0.6653452125885075
0.7145202718537579
0.9541543655804408
1.0
1.0
1.0
1.0
1.0
1.0
1.0
1.0
1.0
0.9799447038587769
0.802061367923623
0.7540935267087688
0.7762724480544818
0.9962641131064662
0.9141268976414223
0.4394524472671833
0.2561630781461959
0.18051600766463444
0.13978938515300268
0.08386912877911401
0.04874965178457975
0.01094832745810086
0.002955596474015554
0.0
0.0013145128120201298
0.0
0.0
0.0
0.0
0.0
0.0
0.0
0.0
0.0
0.0
0.0
0.0
0.0
0.0
0.0
0.02105319052905479
0.1126719645407253
0.13757483132931939
0.2172512209113015
0.2593098215804283
0.3422189466542779
0.3497089288740708
0.4095719798363464
0.3913226833879392
0.41723152640036876
0.4126172207686503
0.4520019090262958
0.43240625837365804
0.4436454388784683
0.42194771989003665
0.44123303642703204
0.4256392029293042
0.45584230778708934
0.41086435615483463
0.4513464857107861
0.4504586319452735
0.4600615393274823
0.4519419789104521
0.48349786697376773
0.4881274969397677
0.5064464816943259
0.49245955890053583
0.4829560522581799
0.48634112401489543
0.4803269625881594
0.5094340544707933
0.47099813290117787
0.5195003193264907
0.4797464892817193
0.5098541972603736
0.4745878619745284
0.5128569432862526
0.4646965433142841
0.47917622485270844
0.4542299577222832
0.4776572771124351
0.4529747653220844
0.46619918643184377
0.43836984174887794
0.4733764545741222
0.4851536905234425
0.4740913368189176
0.4723572085889499
0.47967368743786293
0.46243491268319337
0.44613952304308696
0.4797223628325211
0.46886492919369055
0.47838053845258977
0.4438885432482606
0.4990876666695967
0.47194029316542985
0.48792386339428007
0.46924526756463064
0.505346178652815
0.4929343960085034
0.5152788211205855
0.4851852419118323
0.5163468618954796
0.49915746864064364
0.5431192945328106
0.5110470570212992
0.5371600455068605
0.5794102190906808
0.7052913241890927
0.9960894435011507
1.0
1.0
1.0
1.0
0.9418187286972983
0.3493366108318886
0.3983337732940373
0.4896697210813136
0.4353296584960221
0.45368988033815416
0.41407335262209316
0.4289978321028486
0.4202229644577179
0.45110104565519604
0.4247747128401369
0.45591388374004793
0.4109052009346249
0.4561031675613839
0.4051826966707748
0.4403161406233072
0.4247981220852729
0.4285060486046503
0.42876536130548804
0.44170372281387155
0.42846350969822833
0.45153380667203064
0.4545661190789237
0.46756486040183526
0.47739584195461715
0.4980352382988363
0.5304924026137617
0.5345288337889479
0.5800390915145149
0.5972496614859242
0.6474277996480939
0.6212844350014917
0.6833631674315344
0.663270949669412
0.6995269112970691
0.6999471336172018
0.715495955779525
0.6932073670445399
0.7175785792735423
0.6488298447133019
0.6396211323599302
0.5884140475179441
0.5885009353017193
0.5189897355968903
0.5234696864115941
0.47763903248665585
0.4864204359758849
0.4849645335201978
0.48456422992686354
0.5022926567358632
0.5003106258204143
0.5150105452875888
0.4892500378437922
0.5005959121524983
0.49698599414600314
0.5192336846349772
0.5176853810798687
0.5461206597143423
0.5224117098701927
0.5437228906778009
0.5049530227324622
0.5410759077703312
0.5172030247637577
0.5470954965775672
0.49787378643155433
0.532031091531058
0.5307023443136242
0.5311877440128228
0.5329629980211802
0.5258443349735171
0.5096119967085186
0.5323961554899335
0.5358966854864885
0.5190563685738706
0.5312855203676345
0.5132276179154679
0.5123197417706165
0.5088414749781248
0.5386309697774482
0.5097125353371401
0.5260045612398366
0.6103864203996262
0.8829025478037732
1.0
1.0
1.0
1.0
0.592842343615057
0.296530598562626
0.4374211986341425
0.4756237937958076
0.46624154659280787
0.4374844288213445
0.412405695068548
0.38991892757787633
0.4032426827469573
0.411798877675791
0.388036045740167
0.38623818131641263
0.38329944027216767
0.37919485650865986
0.3887442598987417
0.36005435475468933
0.37075766041001607
0.3648635193220085
0.38267541081446277
0.3766503415636466
0.41882639183773857
0.4215339547568428
0.46507293076041634
0.4562162151770601
0.5252618208039592
0.5233873788193124
0.5926755365997427
0.5375789571711478
0.5834166148560973
0.5834523440486088
0.6088659175279144
0.5727316310104988
0.6161691309284796
0.5861954027182508
0.5979255918958516
0.5806365227794564
0.5672776045383905
0.5201722800685543
0.5038248664056049
0.5030652340968349
0.44357553511144954
0.44469230201589427
0.423376267603431
0.43676156946401523
0.4127146715726172
0.4076002794091078
0.3673365273706158
0.397479841159302
0.3823948473343341
0.42646845162863906
0.3862464684922732
0.4242573471430977
0.39101503927037773
0.4485928237619299
0.4137092934123371
0.44260256739761966
0.42694574964207516
0.46207470124560623
0.4536814095691657
0.46893373455977166
0.42398413709055005
0.4270379832274555
0.4008494534690378
0.40959214789563375
0.41740625609548054
0.39581853906922887
0.4062806507180222
0.40890398789324117
0.4406006090157194
0.4062113018161462
0.44065503613212426
0.41722406359083947
0.4650338933188965
0.4266887945485959
0.4402765057738119
0.410391095766797
0.46271662291295473
0.44711187477627323
0.5049689678565568
0.4891994946417536
0.49403801210894793
0.5291914459149033
0.7283377963408116
1.0
1.0
1.0
1.0
1.0
0.366303163708044
0.3104438451030326
0.4354921407888651
0.4141704013935403
0.3984305700845076
0.393143577801096
0.38228788957038023
0.38064079282700514
0.35989568390411286
0.3954703951962838
0.3777523343037942
0.39124137754054544
0.35638248197534766
0.38388651820300995
0.35203975897110296
0.401231415755572
0.3831814197308453
0.41600287350395115
0.3939231482004872
0.43418994873449773
0.4359182867631687
0.4762432856295997
0.4820753453792882
0.500751731185897
0.5355999873555175
0.5678393733368823
0.5986983183879928
0.6188869561895571
0.6554600966143372
0.6549373311635744
0.6928859366482372
0.6741964444745078
0.6942542853785508
0.6614474306983003
0.6732675288959757
0.6079128982467422
0.5978153218271418
0.5462220045896059
0.5272054717097975
0.4908818941213496
0.5219006523516454
0.46916221414982956
0.5029742420404856
0.4873856995091976
0.5235499059198003
0.5576576784776287
0.6451673312237236
0.7271737287984547
0.9578835279441611
1.0
1.0
1.0
1.0
1.0
1.0
1.0
1.0
1.0
0.8017537344593284
0.7935440526329376
0.8771909713587276
1.0
0.6376175999040091
0.26286970924572994
0.18017642991108787
0.13394899134153163
0.03520963415447707
0.014115404331462588
0.0
0.0
0.0
0.0
0.0
0.0
0.0
0.0
0.0
0.0
0.0
0.0
0.0
0.0
0.03537135856771547
0.03295222880891764
0.11075978076177657
0.1476854918068143
0.2509645762835491
0.26776525395055495
0.3446853000628141
0.3387002634882914
0.4005199226715904
0.4004966126634229
0.42129877944214006
0.39217282651214147
0.4189656745663071
0.3840871864238263
0.4027005440522234
0.40332458765882073
0.42171704523815884
0.39461664200692287
0.3947799008947174
0.4111683367350062
0.4189102193286322
0.4317808096155578
0.44455362688594924
0.4394617985491176
0.4436511394909675
0.4713305415545609
0.4462341787488923
0.4822897949303986
0.4455197862121022
0.46451643060283254
0.4436936991544059
0.47152242432067093
0.45698207000677743
0.4760932720137344
0.43816158751301393
0.4411271676312201
0.4358476699532085
0.460650872748052
0.4434977335027671
0.4636445726507456
0.43231692173334385
0.4502424334128575
0.4316336778015498
0.4372699531118879
0.43845515834250737
0.43110144692803354
0.4402309547835766
0.4168654985718126
0.4287395004674801
0.4204347818738608
0.4277188922374693
0.42237513380244884
0.4566109455086546
0.41615891413536454
0.44205944761335136
0.4262748856701646
0.4656947187431393
0.4184355959155625
0.46488737535114105
0.4326605787003321
0.43193690576189925
0.4278855648289871
0.4427416941751302
0.41861902582818045
0.433412098581308
0.4355749480086386
0.4278442584568542
0.41256127191432146
0.4339506031797093
0.4415749252569624
0.45544112214000687
0.4464391159978832
0.4362953259548532
0.4646634636677504
0.453462635859265
0.47739353279646146
0.472247791664339
0.4657788254140291
0.4481121480266387
0.47667579399541077
0.45513491962716623
0.4735977364658657
0.448110872234526
0.47610116995122087
0.4246929310819542
0.45368654311195283
0.4376120679329877
0.48588114061155724
0.45691328506962636
0.46510217532877335
0.47479765455567036
0.48003477583074766
0.4873564313357501
0.48890832941467266
0.5065414370035821
0.540823566268449
0.7924352212381462
1.0
1.0
1.0
1.0
0.7155803205723175
0.36640577816448583
0.47929873120926336
0.4688510518034871
0.42793729626478016
0.4347231951019525
0.3994574860800267
0.40428929200508656
0.3630840775013756
0.3823447336804642
0.35785857620127065
0.3814715855786933
0.3632457552964723
0.388823191243893
0.3783524939598113
0.399936467435913
0.40027782525329164
0.4138895564223012
0.42556013053433706
0.4131872562330513
0.43518060296138844
0.4497675649868116
0.4674506332505161
0.462080074136668
0.4969767375924662
0.4992511360238903
0.5259888904415717
0.5242088033742613
0.5744426971292282
0.5847984049004915
0.6370741752951213
0.6388037076280133
0.6924353283871161
0.6741799405805826
0.7038568014767088
0.6651963296910004
0.6768030321099145
0.6356743878529244
0.6146117127203327
0.5556246301643858
0.5399201893466531
0.5040955553151749
0.4894718667030255
0.4719989091701947
0.44451371725619204
0.4401240336878115
0.44170988319127114
0.46317689170218257
0.4532039949847187
0.4793877181328151
0.4564515117782708
0.4949273978551614
0.4696708601082354
0.5082722618565101
0.4650818825042019
0.5082185710255323
0.46290267202804564
0.5110125217012457
0.4795565086478577
0.5053900348997024
0.4636263511319223
0.48936440143022447
0.46108277316302076
0.4729078735028316
0.4611914127343185
0.45627133586283375
0.45037847987410756
0.4548608046717358
0.4595086285584518
0.45440312925187554
0.4498686582718305
0.43952498942981266
0.47010678615441737
0.450199358554176
0.4665029326445046
0.42547618978620527
0.45280682008059586
0.43139180489552664
0.4605293120286391
0.4123190616606694
0.4394881184105127
0.41842836681957973
0.46454543481041444
0.4347448828504996
0.4584429944710684
0.4175694198426426
0.44155088117193425
0.4229093402064743
0.4365351159502864
0.42749893462686356
0.4462680595673275
0.4280518547853139
0.44113614174896043
0.43122577083190006
0.41448095342444596
0.4261255927485858
0.4311617387251664
0.4446360863529156
0.42086763844865616
0.4384729616790823
0.4200114016801379
0.4389941364610541
0.43573990937868523
0.485843833804942
0.4658116798119181
0.5147622576604933
0.4725206153265239
0.4949032495085586
0.48497634551169383
0.5077141465078077
0.5094205158181756
0.6612485274839782
0.98377566138942
1.0
1.0
1.0
1.0
0.33562613633715804
0.41316208363019846
0.5048488055243389
0.44797715220854456
0.43404951622768567
0.4306145377348349
0.4019735915063027
0.386385831931558
0.40135032591728975
0.40705478982687937
0.38881362139869624
0.39969245223942196
0.374542586895083
0.393646861258022
0.3959156988368377
0.4143071074629912
0.40824017634977466
0.427436453141173
0.44018170807159807
0.4683203187522313
0.46586763580737645
0.5268335107547883
0.5244410843761719
0.568500570277985
0.5848383893135282
0.604304364400071
0.6208579604449161
0.6335179888455894
0.6418379982031945
0.6332384037338556
0.633328458387831
0.6246520095637943
0.6371177728254047
0.6103854130168006
0.6298759746752716
0.5951513288372634
0.5888528632612992
0.5433411081711685
0.5522159984034175
0.4991708957305077
0.5247136139370565
0.5075379512819034
0.5083614181204725
0.4629742051884362
0.48632824959869003
0.4613964735000775
0.4815631322207601
0.4524195045432434
0.48667701692279275
0.4795200516658027
0.48350891059671497
0.48703776298419427
0.49527918760554784
0.5145151903550537
0.5224128787493469
0.5351630570010116
0.5353546288584385
0.5592806555406589
0.5239625090845077
0.523762602520003
0.4908773613717493
0.5059047216784591
0.4691936997839391
0.5035098030733511
0.48095323768345954
0.5172090064690696
0.48139589133136235
0.49976093099357266
0.47612270170230414
0.510881029585442
0.4954335817759078
0.5358977675500778
0.5195651552554506
0.5432418324470619
0.5275550244709102
0.522046980975491
0.5075740597455873
0.5077660057645338
0.5211544173817161
0.4989345818950784
0.5251566142218141
0.509805748338147
0.5380116094453872
0.5196920985272283
0.5230817077452178
0.509390039619881
0.547182708192129
0.5219144375519152
0.5744461833226163
0.5319659238258242
0.5788142158293968
0.5473847585313634
0.5762867451806877
0.5341943232374085
0.5974969796681111
0.5509741485264937
0.6524711756298226
0.7589624477594639
1.0
1.0
1.0
1.0
1.0
0.5756094125205987
0.2800509252686426
0.5164434747910113
0.49555105203696515
0.5068034770945133
0.4604171721021779
0.4778304538481296
0.45583401428027637
0.5000776364360562
0.44875335447772924
0.48122734900289066
0.4319948602298315
0.4790304602647396
0.44779439556191836
0.46728297321151435
0.4680788785026121
0.5163672310947123
0.491949034271659
0.5154649884251713
0.5029773255343666
0.5100158889959018
0.5039904800311934
0.5196588226065986
0.5264482263760524
0.5621856238558331
0.588574791975089
0.6199623098910582
0.646951644586811
0.6822821500746055
0.7202633236775328
0.7275985088775188
0.7853822443542151
0.74913297065095
0.7964733727807799
0.7611526701404147
0.7969190156783371
0.7606426265284044
0.7779606253992076
0.7065036391085544
0.7220685827499649
0.6692014122525126
0.6601478465084429
0.6153959425715844
0.5915402354088289
0.5691027950976939
0.5831809581434266
0.5590071282316627
0.5742940592214805
0.5545031175268141
0.55165075058378
0.5905410601183179
0.6826248428789143
0.7365435872429519
0.9168087387608022
1.0
1.0
1.0
1.0
1.0
1.0
1.0
1.0
1.0
0.9040878997809084
0.7927236806229837
0.7073172239434132
0.804278625326018
0.9946114062448796
0.7104315398165159
0.35372257698140563
0.33008771330090764
0.24287885003853332
0.22303859511097657
0.15574495021259965
0.15573071347484727
0.12118314805716368
0.11094618232805713
0.11699302935378637
0.10417228732327555
0.07761834395591309
0.04947372290915917
0.030070436148361246
0.0
0.0
0.0
0.0
0.0
0.0
0.0
0.021476111690617028
0.0
0.05106487226917986
0.04234425043973315
0.1152024224545285
0.1505051494029057
0.2119489689955163
0.2472342283063472
0.3276443370593956
0.3945430096515275
0.4187843800438883
0.464792063709643
0.4689103687865382
0.4834587323223496
0.5033843000475009
0.5183566003750084
0.4893206199543939
0.5226342443061053
0.5040326645801929
0.5353527474837196
0.502981086728875
0.5249685651077907
0.5053169501484954
0.5508156320204416
0.5206418505965704
0.5435880977400268
0.5196400578753407
0.5514530115145495
0.5535469052061341
0.5826568828758965
0.556316176668966
0.5658309465520457
0.5098343756936413
0.5518819287753636
0.5369240510579636
0.5325074595897388
0.5182500213911736
0.5243511544764687
0.5188893748122756
0.5083119473335327
0.5296773413420424
0.5144854119018236
0.5455252570963302
0.5158044952480474
0.5456824546200733
0.5292147842633395
0.5656546531625581
0.5456656012333025
0.5665071712556529
0.556593032732384
0.5798439506377104
0.5115399154952134
0.5641389627761387
0.5087804388837569
0.5232824184637597
0.5078206671695478
0.5655781958996878
0.5368156542896945
0.5656268269686704
0.5396821796131763
0.5435491494289599
0.5128009952510602
0.5247199948046778
0.5205626673888937
0.5417266642007326
0.5537982673894353
0.5422352435127434
0.5515693978794837
0.5515467581207368
0.5555482813919922
0.5302032142777522
0.5521887156084694
0.5227081348518963
0.5673388633899725
0.5366368051279408
0.5387534416652645
0.533182248829626
0.5377778493304244
0.5237157264822658
0.5710449474810045
0.544409304710065
0.5683707056407442
0.5457540849293248
0.5792936497004112
0.5513142613165781
0.5787869592267357
0.586838246812188
0.5842509976935697
0.576004759400692
0.5537709686837569
0.5703972318516882
0.5876292411763676
0.6073856199640479
0.589773539562756
0.5855751018834705
0.5573742119595704
0.5912975421010132
0.58285799216544
0.6381461948012743
0.7046384411936133
1.0
1.0
1.0
1.0
1.0
0.761862301493619
0.3761528438049761
0.5741882902488663
0.5869213770926632
0.5309867311579856
0.5315816663324033
0.5134326294115087
0.49041776601056286
0.4904934176884438
0.49301963162890433
0.493912640887079
0.49107150537368155
0.5206603105838951
0.49308935428926637
0.49875012552319287
0.4973464725077938
0.5235514592773047
0.49119139392204547
0.5265805798631569
0.5094746203646644
0.5637151689547697
0.5513123290895439
0.5963989200712466
0.5895322936017708
0.6391970431151274
0.6167051060650707
0.7043583727328157
0.7124529950452654
0.7662687468212963
0.780364363471252
0.818982415304491
0.819344452661069
0.8408931947355933
0.8389315128415273
0.843927891063149
0.8143647319336363
0.8146812097533471
0.8223903994269512
0.7572212839653399
0.7376596745947458
0.6938017352597072
0.6764625796221908
0.6328645918651509
0.6501370426204782
0.6175679659444357
0.6372236791273865
0.5951317302427435
0.6206777403102031
0.5978098974609669
0.6252425217693134
0.6005342767355241
0.6402646838943753
0.5984336957735541
0.625665470437252
0.630798561325138
0.6400015888199366
0.6369120450144632
0.6543736155215654
0.667452982754603
0.6626601276436099
0.6608735723467831
0.6665567366828709
0.683112787993004
0.6643700695516641
0.6790707339155322
0.6419921615337454
0.6697374717981301
0.6330372399228243
0.6564127497692692
0.6153994696982361
0.6467359133437325
0.5933665407350792
0.631510604759794
0.630836211202315
0.8135557792733172
1.0
1.0
1.0
1.0
1.0
0.4821899651569012
0.32947347275231265
0.5598765773761982
0.5419855963077546
0.5431677013778773
0.4846826566248457
0.491770803778066
0.501276833689813
0.4921651985824497
0.48850415224733873
0.49814674474833015
0.5168380687698348
0.49541743482613365
0.5208853292914501
0.5147941668023039
0.5364930006744781
0.4761407983759559
0.5116399482277585
0.5084915463375526
0.552452339042534
0.5329440925314561
0.5825132903649896
0.5731309740672188
0.5949865029632225
0.5904937983615264
0.6585337805024453
0.6680289792771463
0.7030130436400414
0.7312598250759942
0.778771784101934
0.7661194377389103
0.7853843312377621
0.8209424326076089
0.7978228608053773
0.7885412522021684
0.7642255263333169
0.7375062854246348
0.6776077900053744
0.6799239846954362
0.5979550736802028
0.6043851902517761
0.5408542864867691
0.54544926642437
0.5018191181041721
0.5175886775143933
0.47523903107992
0.506124429925268
0.4946039275895496
0.534285099870118
0.530110607309416
0.5389994281776977
0.5252966988926356
0.5583670064575205
0.5517108153149013
0.577963298876965
0.5660329602637977
0.5783447718825755
0.5835807707622539
0.5690764919354903
0.5687640755520793
0.5573316988360926
0.5475919057660456
0.5392633414545862
0.5681930023297201
0.5390800836378511
0.5454432954672284
0.53077353203866
0.5489947012234884
0.5185888223792776
0.5569313306705467
0.5326099645241622
0.5603290702167827
0.5271555386422244
0.5422949644547154
0.5288321541628085
0.5423508232086729
0.5396421050343132
0.5486190789714116
0.5791364382841524
0.7251237155355641
1.0
1.0
1.0
1.0
1.0
0.3922382430523519
0.35043951182885824
0.5021505396787835
0.47038657107939974
0.4600684581957533
0.4773750299773635
0.43183081145009317
0.45165206383998235
0.43196053775289006
0.4530852223241312
0.4437967954186785
0.45120761221803585
0.4419798521254389
0.45889827025090363
0.4259098245185847
0.44482255810665317
0.43751827570550716
0.47631275034254994
0.47826782365647125
0.5053785345475117
0.5195668193469569
0.5462901939325364
0.5800131903306258
0.592983914281278
0.6311215521527898
0.6325028502300734
0.6770125911812699
0.6746310605173373
0.7073286388181883
0.7054199197671448
0.7528518954334463
0.7210764372350986
0.7615737155409583
0.7163816939469619
0.7151857583929685
0.6617518386440148
0.6606920737803834
0.5987425968868685
0.5884457792157501
0.5354274464051908
0.5371418602017519
0.5062177441606955
0.5377982773701218
0.5233890698387148
0.5287039106254516
0.5342197244397044
0.5615434723712758
0.5680458787266514
0.5569855232456277
0.5691855442787854
0.5595665684873172
0.5835772429206794
0.5553210618534697
0.5846849605579957
0.5705652224990466
0.5898034427511403
0.5734267635245989
0.5809305997694697
0.5587382277348274
0.5752522360324057
0.5398653689353455
0.5847781358067652
0.540599171865816
0.5653261999039605
0.5355116975037205
0.5584763211126452
0.531602614931044
0.5398497483136036
0.5277176220646673
0.5186037516385289
0.5131446531575963
0.5228655619120012
0.5173666873695717
0.5213416630417418
0.5483738754717962
0.5547428772154313
0.5663229681225076
0.532454723311674
0.5371098797459103
0.5169004777201067
0.5529692531728196
0.543426580458039
0.5595643249117614
0.5269841278699778
0.5454128488756073
0.5250799993653498
0.552376211574163
0.5537059188893959
0.7098453548409197
1.0
1.0
1.0
1.0
1.0
0.4276030231721816
0.4001944508538532
0.5519784180786381
0.49316243196362236
0.48061329987605006
0.4425507464168684
0.43548619277160866
0.4523371557463312
0.42651108359058904
0.4181802821630066
0.409417892727068
0.43750385529677943
0.40070221149173796
0.44499733194551067
0.4143109554332914
0.4368255264704806
0.4171497325097097
0.44856734699822687
0.4404864763891644
0.4861319677967787
0.4657339401938322
0.5241140458700839
0.5335148949433446
0.587682952215255
0.6083493491176165
0.6172979196038677
0.6408061358131434
0.6551606239024714
0.6545573093308206
0.6558960480638583
0.7014983324312417
0.6905982040358692
0.7030621739843703
0.6985775649057718
0.6896711756616793
0.6210043164538497
0.6301820261788598
0.5731613729109682
0.5858553990004405
0.5203407742688577
0.5285028966488294
0.47861244540567716
0.508066690859526
0.46996313227522635
0.48462355516907535
0.44773157422627696
0.49403976443853487
0.4755849337138954
0.4841161982864114
0.48844673304968855
0.4994744917402031
0.48490571042867636
0.5052871376603691
0.5004905399645269
0.5258317093343384
0.5289600685364864
0.5118118882342648
0.5395327009795667
0.4889865004471773
0.4866132203622602
0.4855423145664953
0.5162656414273162
0.4755676869533919
0.5322498454030158
0.4994688269080464
0.5035698347164491
0.4657047802523458
0.47808347146124985
0.4415486041805935
0.476068078775262
0.4477248524706473
0.47694381770528355
0.4577683170021058
0.48157136674398915
0.4715949394514466
0.48672151013685666
0.45251255587977274
0.48111242690390793
0.46395823189928337
0.46303469435873323
0.4751313578799895
0.47576901713893277
0.4968944216425257
0.47334749950672395
0.4752228815360306
0.4517977830292434
0.4798363322285364
0.46777998608250115
0.49071503737984273
0.49296584088982287
0.5103374312637736
0.46726950627255553
0.5023883955009
0.46267128028849436
0.48831802680358516
0.463621340597583
0.4708439341607386
0.46489991747520143
0.4982101583679107
0.47676681164535417
0.4729014889619189
0.47830357013701263
0.49677989098473085
0.4987332589765104
0.5163026312894716
0.5140456514777265
0.504558986345258
0.5153690567753902
0.511766577716718
0.5144025850516261
0.4945615366356301
0.5066674349014624
0.49082822076102406
0.5113940912890087
0.477582301217746
0.5133775693415746
0.4820314269329097
0.5245319461146214
0.506946812070796
0.5117979873404855
0.4745416999063618
0.5203841584178338
0.5045889441669376
0.5258960427343116
0.5123746456825105
0.528436101625878
0.5336087721399183
0.5250287831508034
0.5164023247720493
0.5202165233447287
0.5150947652883183
0.5119962450923269
0.5365783152288385
0.5131018119736928
0.5537270571983592
0.5193255022005372
0.5472907113973897
0.5301361080818122
0.5618064523708031
0.5198669112137199
0.5768286495946657
0.5544986297073559
0.6284959759676423
0.7230746327025662
1.0
1.0
1.0
1.0
1.0
0.7968539746859287
0.38919474473671317
0.536403338657842
0.5070479269615046
0.5039301561238927
0.4766453294227637
0.46368004646739713
0.43961923008268544
0.4470572410438834
0.3904463521186187
0.44272702704775924
0.400656230556092
0.4302382096897552
0.3958794080529883
0.44276261991575144
0.4274693009637903
0.4679487924986412
0.43489181569054286
0.4752552953199573
0.44431800176496045
0.5014341053293694
0.4942951124279162
0.5609615671269302
0.5406623970658571
0.5971717724969781
0.6023635155722338
0.6462979828307873
0.6513484333334211
0.6765735081160594
0.7037071689902025
0.722224333089325
0.7474936269928771
0.7596864223975902
0.7883799842113268
0.7664531474137373
0.7921284921292757
0.7535173810904705
0.7428516259121254
0.6865363468699204
0.6905170762615128
0.6298392480887491
0.6227061526336826
0.562153541205946
0.5748369339361848
0.5154485827220342
0.5222978993124074
0.478778901869976
0.49830473379122975
0.4679153341310146
0.48187864214684206
0.4765887802842971
0.5096411166514191
0.49637890791343164
0.5152256323007094
0.5078969613038942
0.504108275633959
0.5219697217826464
0.5351549953870409
0.555087436929827
0.5350663477355532
0.5765400250647537
0.5393709547738911
0.5484012960933413
0.5226245826861321
0.5234961133158664
0.4867330930134144
0.5299931922313574
0.498020796825663
0.5223336885614889
0.48364630106440687
0.5253760557617081
0.49107476195588545
0.516856047667359
0.48456621162206137
0.5072336034196782
0.48065648456856147
0.5044416770785479
0.49403454605754493
0.5052536547763842
0.47966857066047874
0.49956861248611933
0.49188947340134526
0.4587241074068036
0.4751520934679151
0.4810146464990625
0.5231103438482338
0.521756753669797
0.6579869647514291
0.9163073575224872
1.0
1.0
1.0
1.0
0.7242064360676521
0.1772656218402931
0.4506420659665529
0.44612803239416216
0.4657839446498973
0.39975382755263145
0.41776887251614864
0.3741589669914749
0.40449509382498255
0.3762843179644123
0.3755608767148534
0.3653571726080436
0.4093690804224721
0.4037343076892107
0.39171826433854695
0.41064946679313036
0.40372404910333326
0.408047356541009
0.40482942990383036
0.4343907738247895
0.41372251779910574
0.4706357845320535
0.4503961562696704
0.5075837646637238
0.48815283167445056
0.5439287793978981
0.5267060603164044
0.5888903336986315
0.575074637801914
0.6339318781596334
0.6518364882368268
0.7090330457365966
0.7065566959774523
0.718902986704577
0.7031935282955294
0.7117591241320741
0.6673714644938298
0.6624404636051977
0.6355281775207102
0.5801728761666657
0.5541661652007599
0.5085042343900488
0.48271405357116814
0.44781049555929553
0.45320723847394173
0.42510971146872734
0.4409037524732664
0.4059694102249904
0.42995826947270965
0.4126837196008952
0.4582069143198078
0.44065406833813175
0.47467070897559466
0.4353648156334974
0.495395416201592
0.46701566432219355
0.4986855871771165
0.49604464360379297
0.4988124650619099
0.4836860622473901
0.49267692007050734
0.46766991300012506
0.4689890872708101
0.4785901616179039
0.47952320614223
0.4578345240809643
0.4653459618535778
0.48593792085591164
0.44607050872000265
0.45378250768578043
0.43328966479806397
0.46205399217338067
0.43868761697431014
0.48151107340391486
0.44963713040963016
0.4805611027759995
0.44018880718041886
0.4855592486938062
0.4495579111922418
0.46940751262645214
0.4297389435846292
0.4423882182279316
0.41386174323721453
0.44195175675186427
0.4385852208396903
0.4601986838546712
0.4821868849845502
0.5037125386921273
0.6202397075450667
0.9333934104104795
1.0
1.0
1.0
1.0
0.8761444894922074
0.17829216077654989
0.37976665185290537
0.4036012588946436
0.4044914336766906
0.3509313366085315
0.36004225377080895
0.3141996000379531
0.34805818304463954
0.34561157576274415
0.36482038867268574
0.34081448407544473
0.35692119086440866
0.3216912518286853
0.36156219457036004
0.34666459437681124
0.3508500331252332
0.36694211974559654
0.3760095555237435
0.36363768289826964
0.387459723037484
0.39742677598165804
0.3963556946148183
0.42784825341961447
0.43082329801200475
0.4964096302745379
0.4944662191636532
0.5683523866256299
0.5744435708085539
0.6075513752627222
0.6019003672657854
0.6647665366087991
0.6640256294464788
0.6799351931951279
0.6429205908857917
0.6720232380283874
0.590471179385025
0.5956971870337304
0.519283755333866
0.5156904357176016
0.4469173612234679
0.44778358160145404
0.41085181656813247
0.40249400369920296
0.4112033544945709
0.39275333528997025
0.39276706069948186
0.4148545280524335
0.4121645628499418
0.40589023475498454
0.43843774121754187
0.40982254479279057
0.42543886466809644
0.42469941775298253
0.46709489421532674
0.44175066706079924
0.47900902263519807
0.4276073507981197
0.46754976988704716
0.44739410823726156
0.43417240655556516
0.4276460948206949
0.47052182402983506
0.4176791025365502
0.4599238273626254
0.43633138639976166
0.43504944659328987
0.4225205214450418
0.4233203745436298
0.43687046841664995
0.43080929759885234
0.43297293805815495
0.43425491682894324
0.4209991489809003
0.3992974500671843
0.4107848301222501
0.38031368020680195
0.41247423584295523
0.38651076323421657
0.4038662647052379
0.37134008076432307
0.41872759162804457
0.37709409887456613
0.4185161000925314
0.4011935794023859
0.42762237929282054
0.4009871586058365
0.4208454379335553
0.4202717175358246
0.4347192751454562
0.43402796843127434
0.4102450394780708
0.4070602672625602
0.41577871265357064
0.425617206929764
0.42996464317240973
0.4404322436418056
0.44658633639280587
0.44629069568388535
0.4598125635766775
0.4866969673435861
0.4635081102415642
0.5055550214290229
0.47618185839592425
0.642003466839333
0.8501293368506515
1.0
1.0
1.0
1.0
1.0
0.2530891284716684
0.3790981322254887
0.45492237822242504
0.41931471321348646
0.3757097946597117
0.38601067453646903
0.4167162878692744
0.3886015433084926
0.40298916743742447
0.36028416221220066
0.38392393066685493
0.35670336579045525
0.360169475149111
0.36823337711063076
0.3984845965318459
0.3632843152174147
0.40934246749539727
0.37947178819579513
0.40368835794059466
0.3619529903882181
0.42636571836807047
0.40337487277561496
0.45829521386363614
0.4542362722807778
0.5281508988298692
0.496681822533975
0.5871746252988157
0.5579823406310582
0.6052794907718461
0.6194070124571397
0.6416627667870095
0.660672718125402
0.6730393199378216
0.7045524658975189
0.6954348493111835
0.692927628399903
0.6609151091318191
0.6624433419769326
0.5992028297356154
0.5961880882327317
0.5390061470348113
0.5451097079367215
0.4874368651421455
0.4837206629321127
0.47247914714238215
0.5002528590163843
0.4662881939696474
0.49391047412634864
0.4712398041649054
0.520613066402065
0.48506429339286844
0.5224413956787048
0.4831513028704985
0.49583938131214705
0.47416631423503997
0.5033081369521335
0.4953930449900992
0.5303860317447724
0.5092646478472134
0.49317216421428683
0.49324001801284706
0.49880507739516
0.5066339782967104
0.515292759818297
0.5342296491054552
0.49459582767681465
0.4956750674194058
0.4817705977961345
0.49143664864447895
0.46262790743010207
0.4924379296717709
0.4483589374447643
0.4753579347696911
0.46563070685216645
0.510150862863608
0.4636617106830497
0.5078572770201732
0.47102906060135813
0.4715870254536248
0.454896414406406
0.47987658904279124
0.48757050090274684
0.4859499152581292
0.5077867482235237
0.5093545273276245
0.5306274493658422
0.5315058511320447
0.6153101330310693
0.807835589198687
1.0
1.0
1.0
1.0
1.0
0.35643755497955554
0.2633757883242045
0.42905442738290234
0.46131520629986567
0.413866499472638
0.4183590253256756
0.3833575867511561
0.3987639966244285
0.39596177570737884
0.40433936979171153
0.3916983663820744
0.417320463619624
0.40791550329062315
0.4158726229473385
0.4013713203878929
0.4114042906253633
0.39702037306064797
0.3996818396927426
0.3963293356288979
0.3693693887523329
0.3959140189757588
0.3990505974744381
0.44028857955316225
0.43198607889628404
0.49258732395293
0.5074996227904878
0.5704966386436213
0.5683405615364162
0.6320617820531824
0.6204007358332222
0.6625366981527733
0.6442149153633898
0.6853855029335805
0.6527649674784033
0.6934200846892883
0.6525215601041934
0.6787736550494299
0.6283946830163514
0.6161680462577686
0.5626444265364724
0.5222636048798373
0.5061486903094367
0.48411615508462474
0.4664990043609832
0.4481130164396948
0.45407039716085185
0.42763985489220124
0.447777500279802
0.42446683745375935
0.46746007739963924
0.45358810490546836
0.47870447663418075
0.4582651923081779
0.49227984055901064
0.45238908431456276
0.4755763972459069
0.46706989310353836
0.49295384459551156
0.4553049048054839
0.49155324712213283
0.4575757280735074
0.4872410360828626
0.45657814438430044
0.4736874836757977
0.4730765035249586
0.46225715914705345
0.46370121866566094
0.47267403031300337
0.46972171599069606
0.4449459865451354
0.4603241927521612
0.4356209000754398
0.4716718108483698
0.45339273485994525
0.46815745800577463
0.42250849329627443
0.43635081760496774
0.40627374464865645
0.459710411117691
0.41561170821794596
0.4418387468823055
0.4199468020580726
0.4620622413134412
0.4517383745703315
0.4873867377614407
0.4831951124062293
0.5853494184445058
0.7948046727150265
1.0
1.0
1.0
1.0
0.7841903421623254
0.2508354966723606
0.434909717861472
0.43235552125372523
0.38553548828723655
0.3890181261334978
0.36601529061454974
0.37266827519136986
0.3285236553340846
0.3780069589546195
0.3297674664551815
0.37493669278046377
0.34358882543935815
0.36541957414817716
0.33543887394130306
0.38956378114106505
0.3457914947649051
0.38727163591533664
0.3847157331540879
0.4322666548260596
0.4256179970536385
0.445508076851454
0.4478531376891991
0.478546122741412
0.4878444954546386
0.5071176856061144
0.5481498691787801
0.5532027858109247
0.580548203013677
0.5862283510956543
0.6197743263105757
0.6045455811668328
0.6763296960478858
0.6362802223275776
0.6553852955960843
0.629263861509295
0.6208481539820022
0.5406833453815756
0.5532512619981457
0.4734049697564135
0.4843015356882012
0.4327730123434569
0.45211698659044225
0.41636976318313285
0.44199258357967947
0.4309786123618128
0.4292650665861582
0.4510243840609509
0.4772177893822094
0.4909696152169751
0.5624979503770486
0.6414359598541347
0.699368776173348
0.860247891831538
1.0
1.0
1.0
1.0
1.0
1.0
1.0
1.0
1.0
0.9638113682903008
0.7795056557385849
0.7966779214285242
0.7911342514700976
1.0
1.0
0.40396317175057544
0.1566732763323274
0.11410284735087797
0.03573001632866442
0.028308760736648786
0.0
0.0
0.0
0.0
0.0
0.0
0.0
0.0
0.0
0.0
0.0
0.0
0.0
0.0
0.0
0.0
0.0
0.0
0.0
0.010009454470621737
0.11385079549359531
0.14612802513654183
0.22980666960312787
0.27013429173749454
0.29906176364351233
0.32151889708073134
0.3317085476050698
0.3457472704408714
0.35053539902568165
0.3495891538232871
0.34142838279716853
0.3684416293147109
0.3373971230122925
0.3581890974027215
0.3299592215156629
0.36046803512200054
0.37241616891835494
0.38284202282739765
0.3853436590087912
0.4326423422295801
0.3845406571431334
0.45466414676884803
0.4132913574073732
0.4506788338437323
0.3933917538088941
0.41349795957174135
0.3992524922297874
0.4078524597860079
0.40001523194179844
0.42169492374293227
0.39599660375115764
0.3821413199700017
0.39774919727526903
0.39642852709506055
0.41674465056603227
0.39447950545054683
0.4124689494998264
0.42260922620472224
0.4577415911533925
0.43438798383112276
0.4662116489760125
0.4371192978366604
0.43410646088575433
0.414553731058623
0.452278362967718
0.41333512274347084
0.43691350325501127
0.4025794663628422
0.4422721258870747
0.40784476956297355
0.42816351469147423
0.4245689254821383
0.43075732492801116
0.4238442014620983
0.45949702948762433
0.4369563739675475
0.458770463201806
0.4618820867329828
0.46407675612091587
0.474297654676829
0.4739499687595948
0.4696870770831131
0.4453215780282761
0.4718886826975609
0.4517547247715984
0.46960488993822713
0.4728824212456713
0.5105755090631428
0.5496289743838265
0.7322025430767327
1.0
1.0
1.0
1.0
1.0
0.3207715158419021
0.4109363551954008
0.4821897218150756
0.41707047197472596
0.42458403370875875
0.3823231287434569
0.3820924441382158
0.3821044220046999
0.3754216496684026
0.41086120691141825
0.3837475576048027
0.38923053421980874
0.3687409663032347
0.3858853980047215
0.38054392440392515
0.40682840653035734
0.42564288272505263
0.4423798756302569
0.429593741061049
0.469901509605826
0.4474471166129311
0.4822643394985776
0.47456174479926316
0.5091265307998138
0.4974837658707768
0.5302476734042039
0.5376332494357425
0.5831668274823929
0.5666366856023826
0.5867708152411918
0.5904015475018357
0.6304780513611147
0.665194110281743
0.674979584960374
0.692952599202007
0.6846225219490398
0.6942497162848753
0.6582380341526275
0.6552757768940689
0.5956062549651288
0.5954543276359995
0.5485567981573855
0.5501132265769149
0.4993258680818993
0.5140282859271679
0.47424350144449
0.5143064753164482
0.5082320964483494
0.5452001968208651
0.5302132290517447
0.5614848648011844
0.5345877795583159
0.5627072604169918
0.5459683375055732
0.548549007824664
0.5388578234904421
0.5406083205870151
0.5254466398183089
0.5209926189614047
0.4949295943448315
0.4980564447751171
0.49785502239336576
0.4820491754351857
0.48952792183244503
0.4791162276115374
0.5055100081753379
0.4854964978069084
0.501316415371487
0.48166285702373546
0.5140081239242342
0.48815959190616126
0.5219873237604491
0.4744583911589519
0.5086449972901967
0.4677181459337524
0.4826719148320479
0.46204538634368886
0.4660536907350116
0.44781454437146967
0.4924833210622016
0.48571784076889096
0.5141604355551256
0.5388749884705051
0.6287688145418666
0.8627809594266929
1.0
1.0
1.0
1.0
0.6408628128360045
0.4051833307386958
0.44671112762563386
0.45602637494491427
0.39677877678255147
0.39695777343997607
0.33170211833560137
0.3671757153586595
0.3254124929607737
0.3617498486328815
0.33022727827931675
0.37162512589205493
0.3588130603257386
0.3960658793869525
0.388728011072842
0.4195905020595222
0.4114196721341304
0.43614586938589356
0.4290154644645471
0.4548577308945136
0.43858166227219747
0.4358937398180428
0.4544456695475236
0.4641156604654131
0.48983659747303854
0.48420509714908916
0.5066015140777266
0.5065599976207705
0.5550931001939193
0.5531952818651724
0.6056642178750458
0.5885132774900093
0.645218188653339
0.5936833311862333
0.6006031449258593
0.5576320261757787
0.5760681222285216
0.5155187757595503
0.5155631739020632
0.4818364179818547
0.47577362482681657
0.44634525063482855
0.4638490230168057
0.44805912466767783
0.4520031937769291
0.4681084800354204
0.47485092772290177
0.4780742714853403
0.47023472749030504
0.5157174021789188
0.5062543726238979
0.5056604883422379
0.4932292468706061
0.5027996339972302
0.4743037827756127
0.5026753977839752
0.4766765087963815
0.4989258762783574
0.47390827750950637
0.500538095690957
0.47872002210451736
0.5299968843706591
0.5044832526675489
0.5380780440589616
0.5159066389708039
0.5292798351957264
0.5044682060490618
0.5156806705369361
0.4853345009043493
0.4906286159669356
0.4795604719845459
0.46237654003337153
0.4923835599689981
0.4727375543165445
0.4664253895569307
0.43429839479042764
0.4762038848850416
0.46678616690687863
0.5016137973196574
0.4608619099176849
0.505635472551261
0.47531761652344706
0.5221708680471301
0.4882055569231219
0.5452937630446535
0.5094391558778247
0.5336370854496213
0.5017294035819756
0.509116288960316
0.48584081335236445
0.5205549191091701
0.5053953263356127
0.5095590141274098
0.4989575112725892
0.5478092583304482
0.5500058827785087
0.6184061320685942
0.8211952648863672
1.0
1.0
1.0
1.0
1.0
0.5033225584706698
0.4836888585462747
0.5489538405655399
0.45104840902041826
0.48896135631487103
0.41986987147864785
0.44404686881003147
0.43245600202174417
0.45856878841211735
0.41762783292424527
0.43096399243825845
0.39677493741964465
0.4338465561131569
0.394800187289521
0.4217568098166165
0.41087300655818126
0.4392248374412843
0.4267273545746092
0.4244901146232622
0.43544003708441253
0.4472115194910554
0.481080588384704
0.48522234267946
0.5434966506545529
0.5478358098759336
0.5733332590136299
0.5765369464149651
0.6485235604869223
0.6423873792533622
0.6816458642460891
0.6601303056394855
0.6780350227986262
0.6807996279712215
0.7247109747132149
0.7041282337755985
0.740710887806131
0.6983423547009002
0.7095620032380682
0.6793842449438721
0.6433240358189443
0.6064574467928322
0.5956895069885669
0.5587540161745441
0.549773483855926
0.5388082449757919
0.5197330868642299
0.5403598737685905
0.5296009727271649
0.5845080515893025
0.6428107556220384
0.7483445696904207
0.8266066356718202
1.0
1.0
1.0
1.0
1.0
1.0
1.0
1.0
1.0
1.0
0.8544833811916387
0.775157050782194
0.7845587360203211
1.0
0.9110497427417805
0.3386514169765065
0.20074003102533852
0.1707988123304535
0.10079566364451345
0.06378944248836645
0.017868911288628376
0.0032843292162228364
0.0
0.0
0.0
0.0
0.0
0.0
0.0
0.0
0.0
0.0
0.0
0.0
0.0
0.0
0.0
0.05804604544976595
0.10216073630549709
0.18169112728029996
0.22271199197598662
0.26893752604407456
0.30910166630402364
0.35247082375900296
0.3889228386721717
0.37682676750539457
0.40616972032592846
0.3758051409865769
0.40961695548135424
0.3860100442347275
0.41343987860028203
0.3932157094984475
0.4363011285442274
0.4319298121519638
0.4617153723531954
0.4260192311415518
0.4737004254199113
0.43827259187616985
0.4748892025686554
0.44111988730539586
0.4535839639999276
0.40867156000795896
0.45325547044612957
0.4453006692252258
0.41444422623637467
0.42520037924058796
0.43349364072823493
0.4332585181046035
0.42591026015208344
0.4469418828769916
0.4336918966095076
0.44373188031730776
0.4250546398450374
0.44719856164589367
0.41201248591983824
0.4490788466224983
0.41089096463730385
0.44067990955124436
0.39204983227825096
0.44899789771696474
0.3978883696395495
0.42902267236218206
0.40574017742915397
0.4414589468533028
0.39869617815663105
0.4326477331870935
0.39728912710099784
0.4051115264207694
0.4167130321168913
0.43455805394963487
0.4172160419540784
0.4224320662142912
0.45407082498624696
0.46008057610975917
0.4533896516126291
0.43044403047386026
0.443939216694938
0.41748369646751693
0.44482909838726614
0.42151213992535225
0.4750610622149781
0.45273154449893144
0.47335417086889764
0.46580364934202245
0.5740001621869533
0.7379191101223799
1.0
1.0
1.0
1.0
0.9716422855641845
0.24701652452115136
0.34605080026861923
0.4239715908782486
0.40758356483947294
0.3973694151676117
0.36532509081821757
0.370767882311104
0.34833149903599897
0.31940686567031235
0.3080643426517737
0.32312558699653576
0.28899386018447365
0.3106400696342958
0.2769805716916857
0.33451139518178935
0.29617947505971703
0.3356519406478604
0.3228129714493761
0.35238122415049417
0.3247149586985073
0.3702993656077333
0.3474422422599866
0.40566882749528965
0.3989995469411348
0.456285970499528
0.44491643589520224
0.47499977674404825
0.4578386342976251
0.5040607864635432
0.488120164556093
0.5068252876284112
0.5228504009743176
0.536164722016715
0.5695093849968119
0.5667976161459444
0.6037121352649952
0.6137575004210357
0.6506124198379883
0.6306592081371802
0.6529109494804682
0.6075199545832867
0.6319486350320627
0.5737428500214137
0.6040318932745999
0.5500438113610887
0.564938549095742
0.5037003021970397
0.5105623855412942
0.4860630695417467
0.5110827510870264
0.46545849393681155
0.5219758027038935
0.48979017655200996
0.4995864093496426
0.4880942041216311
0.5164820923515824
0.5183460024352557
0.510515319483206
0.544724982478393
0.5263855521571492
0.5471833003465741
0.5629849765832524
0.5550244062261853
0.5198639766425501
0.5404743339936608
0.47684040290799723
0.5124175541008611
0.5000753839679432
0.5089210196070609
0.46135886847493435
0.4961565818603219
0.48007944982516104
0.488559517250341
0.4512294842513832
0.4844830555824687
0.48610882350157114
0.5271684133318524
0.5599426468991717
0.7455837124895336
1.0
1.0
1.0
1.0
1.0
0.2651959680324917
0.26064835410983245
0.445670734278769
0.45093668524608865
0.40412961061056896
0.421613512796306
0.37390567356916204
0.3976174798677269
0.37419132606916755
0.3991228750823596
0.3839220735231861
0.4247125712159884
0.39493981662050903
0.44589537757280884
0.42010489808726315
0.4063096386509425
0.41692435324947114
0.4054784929022759
0.3772831259086545
0.41537019970998024
0.42243425725724404
0.4138471593497444
0.4277547332271854
0.45205470905365014
0.49924770401680413
0.4859882566364611
0.5303145127931218
0.5058708495666566
0.5736985130952504
0.5313522898096272
0.5493761489091352
0.5426425095427291
0.6010114443931778
0.5690266317613053
0.6219273274282692
0.5888915424257889
0.625499666199578
0.5682288309367788
0.6021774937868936
0.5148979399154573
0.5307464694272293
0.4826273025785512
0.49905080742662866
0.44866240871526203
0.4574344102908901
0.4482655618098759
0.46579576336231565
0.43179304000881924
0.4476644442934344
0.4845982542103453
0.48146811452856086
0.48033119780610767
0.4753953435471988
0.501184742306236
0.4728098217041513
0.498350642522104
0.4610948220353106
0.5157119170586945
0.4859283155808776
0.5294517334325246
0.4942454469101989
0.5121631290322243
0.4966155666732998
0.5019045402896605
0.46241391751464134
0.49550274613938006
0.45725717190047366
0.47683917312351454
0.48472649382988375
0.4833381980883661
0.45259239649420613
0.4655167774830842
0.44852446493877973
0.45989602408611574
0.4625196798583591
0.44168501189801435
0.437271014717051
0.42028862914726506
0.4666389715880296
0.4734218345798439
0.49243882963416497
0.47048503976161093
0.49036293878647574
0.4566050891324343
0.4893693945491175
0.4277116657840142
0.47267252508771856
0.4561242329776302
0.47071726544536957
0.4246229485985132
0.4678726624203673
0.44734855333695445
0.46803724012296033
0.44941376265964345
0.48845042496645263
0.4719394035812751
0.4746910862616501
0.47157513913406446
0.5109934952158068
0.5103688949048628
0.526394764977573
0.5406219803479989
0.5145128473776988
0.5353400983912076
0.49572201554645207
0.5212780444284585
0.471037236299576
0.5170857914344699
0.46867848298804005
0.49324507411819535
0.45811651536910186
0.5058909384104048
0.4772446171681931
0.5346213721262735
0.5204158272287394
0.6089067092517485
0.7021904109513949
1.0
1.0
1.0
1.0
1.0
0.43321702442975296
0.34592304698265347
0.5184715699327254
0.4717669590905188
0.47252517657584214
0.42249898371657474
0.4483470584369334
0.42303316836649163
0.44144054577402814
0.422400010181629
0.4749359682650189
0.444238864628382
0.48451103515440275
0.46578187616611927
0.48853501326482157
0.48097444601120304
0.4911175122246867
0.44882932344734694
0.48887208366406715
0.4472929204965359
0.47029906470406535
0.4568190425888357
0.5118975818607248
0.5323519763357633
0.5594427462109813
0.5707741285028691
0.5955439204664095
0.6098697343964757
0.6379342259774982
0.6221092242672984
0.6410811905381423
0.7041826154198192
0.692553368108693
0.7003470897964463
0.6947990957528416
0.7360618886248143
0.7013851880493526
0.7299658960327975
0.6767567680140034
0.6737622914508171
0.6199058095417742
0.6483486419665706
0.5945320235808202
0.6047226844876942
0.570535707122301
0.5644057663399253
0.5427608970554658
0.5809610772579595
0.5572627302919692
0.5685607414012193
0.563424100225045
0.5758726309516425
0.5821977739149365
0.5676515638922106
0.5827427588365955
0.5899770690724846
0.6061215029170912
0.5844689516410918
0.6065737339235511
0.5937567211121086
0.6098896041565951
0.5807372637242163
0.6033168155730293
0.5703069196456262
0.5890018007852307
0.5399343882116361
0.5653480378664358
0.5339393932009223
0.5641554317397313
0.5270004544075336
0.5680451606213197
0.5221113868906802
0.5500083628918195
0.5296408371060013
0.5376684872086035
0.5378618974887457
0.5434139336269513
0.5423968359916018
0.5343968618487416
0.5434282478047274
0.5285647602255151
0.5480714524235063
0.5266941306137917
0.5517553097440784
0.5227069164347784
0.5473223464614546
0.5367918000626489
0.5836095106976569
0.5562278335415911
0.5899933116200742
0.5620660827148648
0.5985582530242687
0.6575301906256781
0.921393634348864
1.0
1.0
1.0
1.0
0.9197435424685164
0.3031015060744964
0.48973324261105367
0.5221657613648418
0.5041775295311676
0.4990643412586445
0.5030959655958587
0.4815354859189568
0.5079793932752619
0.47320939929555444
0.47550934699245506
0.4619846000671791
0.4803360779947642
0.463769758238906
0.48269948452859407
0.4543313765367392
0.4753208489494155
0.46986293739924445
0.4883325242271571
0.47009508943417144
0.5377420641681502
0.5426177797099181
0.586792545476009
0.5837545913609413
0.6300933963811627
0.6385451304692171
0.6708486378013141
0.669449107591987
0.6911921746367083
0.6955300095389374
0.7040463529023576
0.7240724053681065
0.7132406050003128
0.715134119142259
0.7284471516337649
0.7360369940647953
0.6930308928507722
0.6932924706500481
0.6438620796388496
0.637275719083143
0.5889932511106128
0.5942731114396302
0.5458967618589388
0.5705063102164349
0.5381247517914626
0.564608105956446
0.5440133435080539
0.5616096195995222
0.5312200045832918
0.5769884059249689
0.5786044140533491
0.6056689926392013
0.6180540137716413
0.6976385124450225
0.7684075998397095
0.938215152286177
1.0
1.0
1.0
1.0
1.0
1.0
1.0
1.0
1.0
0.8341792672131245
0.838209983112348
0.8251719329007781
1.0
0.9971717960625484
0.42968150842608666
0.2988628495762841
0.25784327409355523
0.17619692657210204
0.1425698788833134
0.13668157028750727
0.13565117906173696
0.1130085296721595
0.09401730152465246
0.0876501128447674
0.0529107833193347
0.03877789007474268
0.02755895822032679
0.02184285796320893
0.0
0.022987465673344955
0.0
0.02735118067833193
0.035995629191428694
0.10729559054703022
0.11421756081414344
0.1925355327320239
0.23160127103883502
0.3358556660665536
0.3777283473527075
0.4726340095105841
0.4775647352276625
0.5223133545839613
0.5261676197661521
0.5431799398238797
0.5106296079277022
0.5332390974725654
0.5054285755218386
0.5151674500674279
0.5014741661832419
0.504427298003578
0.49289778184936095
0.5185387510540336
0.517405327230571
0.5018148397498075
0.5157415558288055
0.5012407378111222
0.52612280822831
0.5336374802441125
0.5683145423839113
0.5426354919829074
0.563706287024229
0.5409301057802504
0.5636900129062795
0.5207675397201285
0.5526229023535707
0.5304431659246643
0.5743207469925105
0.5320803355392603
0.5334649485461045
0.5228839521944527
0.5620249675281179
0.5248889959042693
0.5435055916483876
0.5368331664161237
0.5322043433741153
0.5441293552848825
0.5381327137019914
0.5450263598112008
0.5328314280142472
0.5484786401137897
0.5374544321076332
0.5508510327557552
0.5299774506720987
0.5682178662831469
0.5365387670805422
0.5386016792631455
0.543507267844611
0.5827839577321352
0.565784686815193
0.5801512194133887
0.5479218108968434
0.5692428876923064
0.5446672161190795
0.5923718306650899
0.5524258060813737
0.5373683750383226
0.5626591163054732
0.5667085949173838
0.5614638459495979
0.5829941539675983
0.5737305656440396
0.6053659049040376
0.7839617727517096
1.0
1.0
1.0
1.0
1.0
0.3257849767480729
0.4349459195661492
0.5690932887518512
0.4804713031755914
0.5125501624772443
0.4574801538894964
0.502540572237206
0.4552128575243418
0.4798318336219225
0.4646389646372325
0.5180428356149277
0.4791335232187278
0.50188301059945
0.49742954663164884
0.521544164819004
0.5177325392732436
0.5218211781633297
0.5168427256894715
0.5003697413734391
0.5000126348413454
0.5288060254824873
0.5327789329534882
0.5554153259287257
0.5887325033105392
0.6160453860422326
0.6672369940185674
0.6440362776785864
0.7314263005128561
0.7164369121472174
0.7739559848817602
0.7832139209697271
0.8279014917800627
0.8172949680599032
0.8285447461465354
0.7848198265791904
0.7537452574768715
0.6924593947734761
0.671485379215176
0.6186410605154717
0.5962374391241284
0.5907901726247143
0.5510528985842729
0.5619147760882517
0.5515881077157493
0.5549796605968921
0.572732701783204
0.6007157057093756
0.5879502614409139
0.6275307860322865
0.6165631527850922
0.6291491332804224
0.5811174551819874
0.6074936476697614
0.5654616822834925
0.6100375750035643
0.5842053071615052
0.6187057747148439
0.558653683217085
0.5667501529997251
0.5353116383332115
0.5874042318180372
0.5681152909861504
0.5737910368560842
0.5699691330918024
0.5718210405231894
0.5653556306469675
0.5525949229392944
0.5461640817743523
0.5620726233157118
0.5816695756115369
0.5687039016252761
0.5805408644366831
0.5580518910285944
0.5649083507165595
0.5616727722696641
0.5914338832373445
0.5728466859785519
0.6729778002263784
0.8838841828883007
1.0
1.0
1.0
1.0
0.8063046678049763
0.1736350365833375
0.4624711550508403
0.4814436513093394
0.5211413519011882
0.494894095636757
0.5222927841881919
0.46209760835245417
0.44936825445437334
0.4481475086828784
0.4509367058697055
0.4529137551193858
0.47373288981745443
0.48673833282778656
0.47821673642782203
0.49575582104784377
0.4856047589014702
0.5083629384115598
0.47844343373505877
0.5248003185529069
0.5201333259172667
0.5499005333376994
0.5211180463112816
0.5637465407158746
0.5597937921273117
0.6188280335268355
0.600651080823938
0.6464880414612129
0.663674527574816
0.6990328231568548
0.6774171178411683
0.7111831819513148
0.7306750052988936
0.7569320060768912
0.7635852998820936
0.7637451485055909
0.7480385695841673
0.7195087264198851
0.7085107797644202
0.6619300806717914
0.6266670929115159
0.5826328265456959
0.5817318558567549
0.5414216159225438
0.5652376011253655
0.5319807916880549
0.565653572847046
0.5171854803101434
0.558109201184963
0.506111590480561
0.5577052817357984
0.5431767015901899
0.578169235109885
0.5449957402629575
0.5784518958462884
0.5775373955822929
0.5874467366840311
0.5569460888211967
0.5876100158775207
0.5804819673433085
0.5770282038044162
0.5767220121015447
0.5766787660654301
0.5692369460493271
0.5514238400132196
0.5857443409221841
0.5707882372781339
0.5631106530900841
0.5186910599088075
0.5610081695696142
0.5333908600002203
0.5502623331106561
0.5384908378046589
0.5806465233668251
0.5525000750852338
0.5877833030915283
0.5463244868457588
0.5655575381077056
0.5317053315256949
0.568943866428685
0.5433045454698974
0.5609305866605674
0.5703839030880873
0.5719024506774422
0.5952331967684621
0.7013822422909378
0.9964448019455621
1.0
1.0
1.0
1.0
0.5282934307540164
0.3243461436009398
0.5128187692055998
0.5221498718994722
0.5086273343950314
0.516760340166316
0.4688103687607382
0.46490630860263915
0.44048224169106726
0.4637332445792334
0.4226699033621145
0.4469945766039734
0.41167025977090566
0.4548211300178736
0.43229189342664986
0.4766567355773749
0.46322285555316345
0.48868082629982307
0.5048125221587142
0.500504877714738
0.5119406322574521
0.5227283773106217
0.552478721851642
0.571306017214641
0.5900994807982977
0.6088227673929405
0.6584007068401206
0.6558581867669818
0.6805190577469025
0.6729864457798487
0.7243807299084107
0.704168597613495
0.7518790825435178
0.7296005448391287
0.7538546738859179
0.711929377971043
0.7349228313251925
0.6966829016330915
0.683904842599752
0.6254232163904462
0.6346146029126313
0.5777357271647405
0.5606537283687685
0.527083080216187
0.5305484219967217
0.5282293571903327
0.509653586225879
0.5349794182544171
0.5063891616219578
0.5280688946882748
0.5286124515201478
0.554728289152129
0.5453806333113961
0.5883894162369379
0.5766519776968229
0.6107922351543215
0.5665036595384378
0.6004761079715408
0.5698128150617091
0.5842974804986607
0.5483575625558781
0.5706111306358352
0.5379968458272181
0.564811559663728
0.5311885672378203
0.5425438410823249
0.5278156669687213
0.5415533961228716
0.5492854064385398
0.5589758891908414
0.5473188025051644
0.548878999936051
0.5707106793819948
0.5670230322213989
0.5791943710143259
0.5387135013862026
0.5276509909761193
0.5303433919325127
0.5929707866663668
0.6506289535710665
0.9596649701494663
1.0
1.0
1.0
1.0
0.9564910141454742
0.2207490561049413
0.30987691121085853
0.46460780959508574
0.4368368886393762
0.4581387998920895
0.436673912910898
0.4446451984238653
0.4401551399649045
0.43043197711109515
0.42160022016178633
0.434641991826335
0.41965797123344284
0.38405451046481903
0.39879138185798324
0.3996720103554757
0.4140683375149111
0.38628996893583095
0.4225645640894592
0.407002334889806
0.4363539323216056
0.4183771776948101
0.45858708492722117
0.4350421990292821
0.48859716072648174
0.4877313140122501
0.5280004264744816
0.5260034663032785
0.5787293333829082
0.5369401570390079
0.6084237725597292
0.6001496486627012
0.6324119850738497
0.6346854252225308
0.6539434163372708
0.6574634218043273
0.6616415958927047
0.6256704823035543
0.6174372473222882
0.5900679284219321
0.5513376412887372
0.5332423134351678
0.4858541711353177
0.48868296887941803
0.43394510578275913
0.43506951518292664
0.4097208086701027
0.4631535280875035
0.42401353306012923
0.4806664979579117
0.44939829775703827
0.49775100044768994
0.45995218511427727
0.4911565001837583
0.45676138426735013
0.5049083687664279
0.4905606372437738
0.5031457795520784
0.4936228581591875
0.519307599116094
0.49547872452779423
0.4932525745633677
0.48109940021719344
0.44563700369903747
0.4511355606706773
0.4487713045780957
0.47813324975913335
0.46010143415676774
0.4861992885027629
0.46273472192482645
0.5089593941180575
0.46327991955131065
0.44559197909394443
0.4479427031688852
0.47268205888113135
0.42225485399410767
0.4554337058155097
0.4180796042553704
0.44185340565075953
0.420034883607922
0.4250641736657988
0.4349069090306574
0.44447628769702846
0.42889678254677976
0.43155086888887595
0.44563195701440755
0.46730735194873735
0.4460572091725458
0.47356878165504124
0.47568559739499605
0.44725367247710146
0.489162354788739
0.4691417916002371
0.5135048673351857
0.44831578897167706
0.49006641210235413
0.46315759388610733
0.5349500778707134
0.6488096713683875
1.0
1.0
1.0
1.0
1.0
0.6156580645728169
0.1778582127541692
0.41810363511018167
0.4319473745288315
0.40191197417026914
0.38214729678662157
0.3726058902976105
0.34343794390260557
0.3440812957071998
0.34056356064240967
0.39793363487275546
0.3647647224983833
0.37879996693588536
0.3571013814473619
0.37416217522913287
0.3560313186804177
0.3718070464464865
0.3429726903476795
0.3781033795977806
0.3558433178676471
0.406427606419182
0.37362124359249166
0.4400973134866926
0.3996854458000171
0.4405477817570197
0.42927361639524336
0.5044168982482887
0.48925835224389713
0.5249803164272439
0.5387578168300557
0.5573574983815616
0.5987098384775026
0.6160760048430497
0.6457250508228289
0.6609435918667234
0.6624819490908277
0.6431860257426747
0.6576102579215062
0.6275984464188562
0.6446325558822357
0.5927790948583145
0.5882403802261514
0.5135555621866634
0.5001471820510822
0.4467585583549317
0.47454671014093047
0.42727077065166563
0.4767537506680323
0.4395565434303584
0.45231674472669914
0.43655596205216607
0.46882839503636475
0.4591057877842385
0.45989809999864245
0.45363487852731943
0.4820982073317814
0.4734275233187247
0.4815849975758633
0.5018046505295721
0.5082802376221369
0.5143111173888137
0.48379659412754633
0.5031772974211085
0.48689256771754685
0.46318855048803087
0.44297433777800954
0.4967575371518113
0.4371388429239918
0.4987522524881218
0.45907861481092765
0.5058944325569454
0.4528402839755694
0.4696628939824876
0.4703320471600427
0.49346169351980274
0.45826212499123054
0.5096724050521217
0.5007180490046133
0.5071735193972023
0.5077846429938218
0.5188618297576497
0.4953339203369006
0.504286008688866
0.5067125608010326
0.6098336416965039
0.8981908297946133
1.0
1.0
1.0
1.0
0.5925387478252041
0.20248241904320147
0.40328279257030014
0.4447545721276291
0.41330558640646836
0.42059579040436307
0.3875689992943722
0.4079480573008816
0.37244626416405346
0.3792223948186582
0.33714140090089256
0.355906590689841
0.3508711110520336
0.3879976908073117
0.393393351531388
0.4194335685742213
0.4187680439412638
0.41158241627411896
0.4266199752389463
0.4439217754142354
0.4639660690982625
0.4688820458856089
0.499860642907514
0.48225564040417934
0.5219439833479774
0.5294204306141679
0.577990664098602
0.5501329168763386
0.6199889727757082
0.5931399962454952
0.6434083794881189
0.6422564082082086
0.7006248598115944
0.674704596426057
0.709479987913976
0.6729772827038116
0.6577369191007457
0.5944688964361802
0.5751845047820775
0.5200205789171527
0.5128865364772556
0.4790374184618938
0.49020883437974005
0.4759004656964427
0.45686767455479876
0.48353813857957884
0.5440451295234319
0.6483468714564207
0.6728179653984412
0.8635365464920589
1.0
1.0
1.0
1.0
1.0
1.0
1.0
1.0
1.0
0.9079000253194038
0.6771007452273509
0.6915321244749405
0.6983853774061493
1.0
1.0
0.4850313049422101
0.2673546228870082
0.2493987470712839
0.1707345439034615
0.12089301064638232
0.08067687458827741
0.06046462807921982
0.05387436320844392
0.01151669561352735
0.004598065117257999
0.0
0.0
0.0
0.0
0.0
0.0
0.0
0.006399579781272369
0.0
0.05173138334896521
0.03493620935903898
0.10348185994354889
0.1483451125794418
0.22812287511291723
0.2639895466596732
0.33618372033781774
0.3704719579529279
0.3999988853298611
0.41269508801892424
0.4294831242432181
0.4536194746114714
0.4475966234787473
0.46806176194364274
0.4696842295003115
0.47991733558359506
0.45125365635053794
0.4937794152759543
0.4679168243493262
0.49009902464818245
0.44844691831438865
0.4866120311626914
0.45905946578479745
0.4949387778539106
0.4898591692292407
0.5206191125836255
0.4972401707641814
0.5277540906205784
0.5083471644717988
0.5209146723379605
0.5001469689260429
0.5137039378746728
0.5171779443824198
0.510151424226072
0.5164586090187817
0.5171506095027089
0.5035558613207216
0.4786502995999979
0.5189465387341962
0.4997983058403178
0.5260006853748653
0.5227292129025998
0.5386896334150804
0.5113009668607998
0.5326047550880089
0.5003270900412244
0.5283766696702836
0.4932306750056587
0.5211506397733172
0.4973644916992469
0.5375990936675881
0.5100546963338071
0.5352509670757051
0.5013217819984909
0.5335367526150234
0.5165782433964303
0.5387133373313591
0.5265309000052818
0.5568382564036969
0.5515934900593604
0.5469838731273784
0.527052229585635
0.5030989094208971
0.5222930339757138
0.5217768691096507
0.5317180100037626
0.515878498500664
0.5321232109657619
0.5333619326382848
0.5427750231957139
0.516440374279963
0.5510338930557401
0.5004127077344234
0.5424505411508215
0.5301094504322449
0.5651811089839078
0.5406708476122803
0.5767972576678179
0.5592600549911436
0.5560844388361066
0.5584304789172414
0.5857338893537034
0.5554115109467703
0.5761100229085884
0.5747825200961008
0.5702442318238914
0.5825617623781099
0.553513697057365
0.5736717155083483
0.5479168856592906
0.5887723261987156
0.5523122882891299
0.5808561409132811
0.5803786411860237
0.650866680251267
0.686357581495466
1.0
1.0
1.0
1.0
1.0
0.3413002870985719
0.4633182021462693
0.5404578828206367
0.49711743065012104
0.47144171113771327
0.4707953748141683
0.4689180900204139
0.46076698127956456
0.4752733294824255
0.48372318541043874
0.48302933027255274
0.4749100899705664
0.49289569278167883
0.48064340805254374
0.50352354656652
0.49356650754656706
0.5139104912776067
0.48790683072947055
0.5321647825694235
0.5004573494586096
0.5526541027803173
0.566130774006813
0.6192374720768606
0.6045103882949034
0.6573602131022651
0.6488459308917781
0.704358579640869
0.7068354731159531
0.7428270718337175
0.7432262715994732
0.7705338975960705
0.7865000989583696
0.8041568309687346
0.8020217871471124
0.8158623099289359
0.8250452889121526
0.8043725781582272
0.7676418160875638
0.7144731010494354
0.7327948149934852
0.6530388097977093
0.6573766162440486
0.6447168833194422
0.6484822811765902
0.5988812204833811
0.6488477014090371
0.6081918015885714
0.6224450438405339
0.5923582380414598
0.6387353225110012
0.5981068823432268
0.6326261917337496
0.6168916387335406
0.6367108118371644
0.6179324113305416
0.6632383800024644
0.6525968747530329
0.6731276393760657
0.6568955707004044
0.6595974219288113
0.6550389911360532
0.6219206734801321
0.6189786370344066
0.6075446260551086
0.6064617726227137
0.5768987221028361
0.5922994083846904
0.5669595840255649
0.5898766222423644
0.5575872499367172
0.6116475517939949
0.5639148784919393
0.6178018857397687
0.6020584158207108
0.6461784464669588
0.7836241621100621
1.0
1.0
1.0
1.0
0.7828485238842569
0.19644429646074474
0.4759765225006884
0.536899796535732
0.5165203959463479
0.5145498012705925
0.5059341606257775
0.48063564801420144
0.4621973898539726
0.49727592697119
0.4671921518596556
0.4663361659790189
0.4715970743071495
0.5003690158392102
0.45981904055709333
0.48265873209542043
0.4649280883343076
0.49680936579614965
0.4811948537476895
0.5067308344781513
0.48733713635326703
0.539877376354571
0.5197952748119958
0.5469203052472299
0.5520918905833818
0.5724169322659025
0.5793255286874752
0.5804259406239132
0.6054978639077275
0.6387942427174713
0.6603734219686448
0.6643201364374438
0.663905450361242
0.6813380844174175
0.6802019296605906
0.6490620629321976
0.6564857266330089
0.5963120949661815
0.59507488754036
0.557781430139874
0.5733429427131295
0.5011236213838584
0.5419182108055922
0.5064210590917464
0.5390949910961536
0.5071779077978693
0.5379308095846018
0.5340538663992266
0.5713339665400488
0.5447165173481083
0.5831456779790634
0.575327742131487
0.5876353609170231
0.5702153904789625
0.5854299983151608
0.5477354436448606
0.5523609784215137
0.5649882527942165
0.5394201591964235
0.560747781304874
0.5374946523483756
0.5498611152287212
0.5234177568635092
0.5706473803394627
0.5259384904241236
0.5385957081537
0.5121433411023247
0.5430928151482215
0.5304419597001411
0.5558121377753105
0.5279310687342653
0.5466533845820407
0.521201804158479
0.5447996674937658
0.5334811835594653
0.5417213898520928
0.5339569598343233
0.540464935566251
0.5251119074664585
0.523467002877314
0.5389530559615807
0.5451711061021002
0.5379208388170065
0.5558728730027012
0.5579239764695438
0.5342572292030138
0.5597630988268677
0.6288127225582245
0.9250393071305625
1.0
1.0
1.0
1.0
0.9347315218995291
0.2884514873698026
0.4518756436935612
0.5363773191257146
0.4703990101574849
0.48741900528416127
0.4427767946383536
0.4583080145212336
0.434370259706232
0.44549038051552853
0.42728602032527574
0.41962069410053193
0.4241607899312201
0.4318894495776676
0.4314870303607661
0.4213724188186198
0.4503372454644389
0.4609139203994263
0.47401013263716185
0.46792395116765845
0.5079593693310144
0.47637025954607803
0.4924173501491703
0.4929481823042468
0.5641731589824113
0.522889454499522
0.5761448413657104
0.5654982343888812
0.6108727975098173
0.5994760727599362
0.6377286702405398
0.6179540049724824
0.6553472108482492
0.6622163949635176
0.714876154735576
0.7315288227270484
0.7472968665254763
0.706762011109929
0.7018431861073815
0.6967876304432471
0.6421932948541083
0.6255206706256372
0.584871599514379
0.57706482295293
0.5345936548052811
0.5567412563796011
0.5233086546041207
0.5325232981610367
0.48495229736308804
0.5087416856021354
0.5001104956779938
0.5392983132210234
0.5208094674223891
0.5719140329978046
0.5370789881429632
0.5654802628254416
0.5381885424103101
0.5747963643486826
0.5417185409383692
0.5636877562326035
0.5588751586493869
0.5555725311481442
0.558519217144975
0.5631261586007139
0.5509325577219946
0.5275685705710738
0.4999644942153064
0.495114132904681
0.5125813852916371
0.4952718732199585
0.5322874939371386
0.5128378664041927
0.5477310473610578
0.5132019924886565
0.5552773652763062
0.517937068025513
0.529186632964054
0.5146424592642883
0.534370339879041
0.5100416486248831
0.5744241707598571
0.5745473442986514
0.7832532794681116
1.0
1.0
1.0
1.0
0.945539156104674
0.17047733881156937
0.3581973991917248
0.44767125773027744
0.44565018455659
0.4311045288475085
0.4306483094792485
0.3952038774673105
0.42256735068621315
0.39021306390186367
0.4271572149938779
0.39722883319425406
0.41965390245201195
0.37735158449295936
0.42318768120488565
0.3969516698775095
0.4357829013134543
0.4210003217290482
0.43988690216004456
0.4163117493382589
0.45172463735309787
0.43808838376029824
0.48447905942701597
0.49924342412817246
0.5172167915444466
0.5144991062264896
0.5450664054460594
0.5695647876536667
0.5790685114359658
0.6025461241130363
0.618986663873643
0.638801096732973
0.6328385953999326
0.6654821840042965
0.6314011926586758
0.6531929166709078
0.609437822404031
0.6199503963531253
0.5569712241315087
0.5516384615639922
0.48325207605833204
0.4921307001456158
0.44617988236584794
0.47631114385410056
0.4616089725438627
0.47834845309861873
0.46044935979763657
0.48227951289176163
0.4967596450929269
0.4658683286017422
0.46191968205852796
0.5148959297478625
0.5016186746071932
0.4703620314702869
0.4916852064508868
0.4648078193607629
0.4858521613994301
0.4495344198754312
0.47152315217673824
0.44136550312630896
0.45076276558774636
0.41175229876855485
0.44161912836370626
0.40811811232331435
0.4402886205452363
0.43213286592832245
0.4580311039208853
0.41245574421089637
0.47838163003149275
0.4592200053909334
0.4677035213493701
0.46025436922351676
0.47400822578938834
0.4577675015038147
0.4495240299959078
0.44632292600409107
0.457626463248609
0.42036485520272643
0.42582931700592025
0.4501427921535213
0.4218280252380178
0.43049950104495605
0.4168234316938502
0.4310995743880322
0.4327650511544424
0.47601182139155923
0.4291181869990527
0.46446534996542166
0.43973387783452383
0.4952858481971612
0.4481810489033191
0.47319541216605876
0.45364826249523676
0.5020824952596054
0.47130001107182073
0.4764313266972569
0.4295914339742792
0.45980229972167586
0.42798312485773876
0.4147283122621701
0.43768902197359905
0.45018643080693643
0.428694580051313
0.4599364940629204
0.4503464492054504
0.465780453083714
0.4654835326157604
0.4644962553681034
0.49819651843767476
0.4624474056605325
0.5050107160585018
0.47814306663789197
0.5154684854289552
0.49753720319870975
0.5272381474461463
0.4715147766738004
0.5094409253904144
0.4552578403449538
0.515083827121817
0.4976253803246754
0.5332484633307069
0.49908921958092706
0.5120436830112592
0.4961222153883097
0.5063502558837399
0.505280940015567
0.5408062980493853
0.5337242415474784
0.538290361873135
0.5557848230133553
0.5397631179390011
0.5722949791097096
0.5483858835264002
0.5709648624165676
0.5475372462189367
0.5395848256910633
0.49263806061663756
0.5114526869849295
0.4949337061182811
0.5348019549907048
0.501275934776877
0.5676652012771131
0.5319720206829095
0.5438038194243672
0.5366624140943531
0.5597082612528284
0.5209833502404495
0.5672610943747687
0.5630205567165854
0.6055492526304009
0.6045466423753437
0.6069555874059358
0.7955503957600636
1.0
1.0
1.0
1.0
1.0
0.7884889252656979
0.3647532968435149
0.600345925797677
0.5092577536596089
0.5419428615983943
0.49178291300115895
0.5160180367751263
0.4380375807510948
0.4930561437855056
0.4274429821705657
0.4466092912105088
0.4183841766585573
0.44698173195644547
0.41365262787488205
0.45383266003765854
0.42614474105335287
0.4792106289803811
0.4794773221045216
0.5010894838053459
0.5093703567911739
0.5229245125282188
0.531393161227846
0.5191347182343348
0.5667821598341763
0.577088831497663
0.5978671012370127
0.6137870219212509
0.6651445230228022
0.6613021619450513
0.699234596986219
0.6961317630896029
0.7388860452106304
0.7130268553403074
0.7707742372234672
0.769672938272799
0.7926310607801664
0.7852884558284519
0.8238825332217117
0.7574036563766275
0.7440721077591134
0.6949027268501264
0.6724562368752063
0.6235370168907559
0.6096400326798612
0.5746768350005753
0.5545733197923105
0.5397003918821398
0.5381028929802544
0.5373727907154942
0.5247578087321528
0.5393228962031988
0.5301850235391959
0.5681810035984475
0.548933011483841
0.5884908145100487
0.5723670544166686
0.6050686268232173
0.5788169990983533
0.6051453072030719
0.5593042421561816
0.5821675044046315
0.5543898003942438
0.557167845571463
0.5299457294176441
0.565003336413855
0.5425113924306444
0.5405398084399744
0.5177324130158075
0.5399484081051641
0.523407829955595
0.5135686042409179
0.5152435958150059
0.5330023260122383
0.5252933620309654
0.526320981631293
0.5358998563071722
0.505983971865106
0.5077737202476378
0.4926064021025078
0.5302856338650458
0.47395484856711007
0.48510339678539244
0.4815293147177204
0.49668567637875316
0.4515288989425142
0.49786204126035283
0.45873186738614596
0.4914370699163384
0.4545758772216907
0.49794101049572903
0.48141956926604584
0.5126310028783935
0.48598704620429317
0.5087148286084774
0.5113791439716923
0.49291167487870446
0.47924101681240894
0.48259688957679847
0.46907582064550446
0.46218853978657837
0.48121842317647123
0.4709449592550897
0.5001022936687266
0.4689614881586457
0.49874944673746613
0.44785575264965677
0.46922567585146224
0.4405411682156798
0.5152778060511867
0.46553344252585466
0.5094197106168721
0.48091932362958933
0.5106150920678383
0.45983985419763984
0.5073281611154903
0.4692210729304305
0.5147073826071679
0.48376254551245346
0.5038719680561774
0.4932467480919107
0.48677059482125157
0.49253525683455146
0.5187639169844962
0.5061170943775495
0.5027092027118705
0.5011520165014388
0.48823761236333496
0.5015980633541395
0.5468245899558197
0.7524077029094423
1.0
1.0
1.0
1.0
1.0
0.5365254272507683
0.3761558106859991
0.5613969416834359
0.4840847585014535
0.49791303738168996
0.4289007163352034
0.4491759316797964
0.4112477076095765
0.4187572663944851
0.3745239851913479
0.39006137961853016
0.37275828038134967
0.3597238100309947
0.38311113552589704
0.3851971421647436
0.41329274885634265
0.4311092731070366
0.4818158927288166
0.45892602308721553
0.5166855899638068
0.5174627949318131
0.5668705771838625
0.537375584461971
0.5947782304981332
0.5706163891577856
0.6165035239914769
0.5922405545599838
0.6396315349618422
0.6606151360861089
0.7051174885019511
0.6622810688798445
0.6940910821602227
0.6799603854086312
0.7074431207146304
0.704366648462427
0.7745207760473939
0.7497748075494673
0.742833215114635
0.7125996853215446
0.6658737027205296
0.6425647638105684
0.5746478236435941
0.559351896537673
0.5159450057573239
0.4926457344415115
0.45458263592547443
0.4649325632337355
0.4163343397693998
0.44494184952143573
0.4426201461091102
0.47300168367243833
0.4267426544363655
0.4839974106044105
0.46847985291361544
0.5256018845350015
0.5079693411886328
0.5476566960390399
0.5200942981268968
0.5344880134770343
0.5356624214119051
0.5413093790622371
0.5264242192804911
0.5103991588926935
0.49694202276420213
0.46611510112880367
0.4810185530122215
0.44180798023870305
0.4596205641889396
0.41979280228370125
0.4236128812390282
0.41166279813393664
0.4363945947341172
0.4207719555213954
0.4843331750833502
0.46406342954326146
0.5004528296565839
0.4652017264917213
0.48990262376755467
0.45999323569404
0.4901746441455813
0.48347660010650484
0.4959641894892597
0.4567111822591766
0.4559705499088242
0.4230207529624409
0.4658159109756532
0.45846029592151727
0.47113915349843305
0.5988533103328976
0.9543131812135804
1.0
1.0
1.0
1.0
0.2453613542082677
0.12035075782755658
0.4653179255071812
0.4002780099863402
0.4068181849234332
0.34831474335689894
0.3569586180581915
0.2827882549311287
0.3489451580848374
0.29952331546386346
0.368553159587871
0.30612894014271375
0.36204998053509285
0.3510106386730996
0.35952544368919204
0.35998766415315614
0.38471152614197174
0.36563547666514973
0.3922236208700959
0.45251840042042063
0.4500938093663712
0.44978117256501127
0.46716493125064645
0.5190335024729642
0.5086276717988227
0.548267912547042
0.5555855120843337
0.6292008470995578
0.6224485392480533
0.6939386729197409
0.6599707354407491
0.7398276725625549
0.6769589608761781
0.7506190692183965
0.6865758966559272
0.6666700497807886
0.5943614435278869
0.5827514763922907
0.49400571759406786
0.4740180142329418
0.4166622140046689
0.4027822478771023
0.4085952531743538
0.42894821658192434
0.4536456948140561
0.4487643321193846
0.4753146070196765
0.47970596673382404
0.5057329617192667
0.5072867888756109
0.5827549635902389
0.5304778985353418
0.5270108561314861
0.48306983275554777
0.517550574273138
0.4663414722436009
0.5121230765061556
0.46797509011053473
0.513068207817472
0.46867399757277983
0.49363773519899834
0.4603556277493518
0.49519771448167127
0.4699758993843939
0.5053049110787987
0.44650587871900954
0.4890855506489832
0.4893874189659294
0.4880969800711775
0.4756346913775551
0.5000947474196924
0.5015290408695617
0.5120439904062271
0.5348067666106538
0.6167034947455161
1.0
1.0
1.0
1.0
1.0
0.13541970633752842
0.33162776462142834
0.4271827067844639
0.43293904173447223
0.400534748947117
0.4193087100738026
0.3865533126484079
0.4169438493755101
0.38924039482132144
0.40474273773274205
0.39557012915941636
0.39057729758981885
0.3506791221294584
0.3577519448656168
0.3540273686667085
0.35299767376683056
0.3748870861700576
0.38215384326317225
0.3916694596632814
0.39022299617898204
0.4635211395505453
0.47176074561687464
0.5337292988380251
0.5482271479509497
0.6179667719127593
0.6192136265029107
0.6784886098521083
0.6430731054446511
0.679324994824243
0.6501456328254489
0.7026079700482181
0.6799187867810201
0.6829896034017796
0.6488729593580495
0.6366635186643592
0.5805726345548309
0.5586365642323112
0.5294846096509371
0.5031421014339563
0.4794244308749674
0.467553944435448
0.4652121502847792
0.4356618797290081
0.4295732477216928
0.4317975271148158
0.4381507471717597
0.4349314995791757
0.4736655451526162
0.449414806456104
0.49992656997389995
0.4487893985568875
0.49350033974103075
0.46264360514601155
0.4954999514909272
0.46849181057556166
0.4944528158093607
0.45148653432211117
0.459062249668868
0.4330261552231544
0.4716832747356522
0.4486659268421954
0.458214944723878
0.4468362759083061
0.4258363218466605
0.42689119195646874
0.4280979448180034
0.43163952589059174
0.4177182827220813
0.4372506911680145
0.41197381958462376
0.41684069002247615
0.40501684932001075
0.46615486600630185
0.41559955701224816
0.4420647535493341
0.39286681582252014
0.42114710493037844
0.39426036248892454
0.4484076511867653
0.4353608971639451
0.4769160915578462
0.4481571703047849
0.5526007566847007
0.7866288092819081
1.0
1.0
1.0
1.0
0.45200149326710415
0.17583867504097142
0.43499143811165986
0.3873034879531311
0.3446664536685927
0.3254736481001278
0.28751303789437854
0.31524243604868796
0.280229273290935
0.32327915147708547
0.29425730020868734
0.33053194062747326
0.3199063388225271
0.3631088108146642
0.3281838363859932
0.3866417623194114
0.3503606642957945
0.37745188053512263
0.376413564135247
0.4392010726264669
0.41548996395849197
0.4697588951140369
0.4716238684938377
0.4885703414812383
0.5122889138997755
0.528278377125343
0.5776788979398184
0.610036552155569
0.6498154171425761
0.6730664201006926
0.7232473038433564
0.6930971368034061
0.7235379180267822
0.6726480438854674
0.6858864438433875
0.5903707317344026
0.5929970941808699
0.4885791683176716
0.46902289172899403
0.42569771472037693
0.46615514600656927
0.38670626996260965
0.43854720548439674
0.4140325395151077
0.4490961903189068
0.41835557854488314
0.4710139080993012
0.4614748542808621
0.472901698989035
0.46718570881093224
0.5043883901915669
0.4957713608025035
0.4915783240148067
0.4933672025829282
0.45741777335369055
0.4671536636245127
0.4430764535874654
0.4772560581695827
0.4432538974661
0.4563187173955381
0.44101386309766283
0.47753618799330144
0.4117270142403884
0.4654691859544709
0.44130440376134683
0.47519406674442655
0.4319999318730689
0.46007493289631746
0.42430287971121994
0.45220463313629056
0.4270412175838695
0.47392768001747604
0.4473137428444107
0.54308057097165
0.8155658042106098
1.0
1.0
1.0
1.0
0.6550449652051548
0.12451822978646435
0.38733588480824266
0.42531183266118544
0.39838822769490745
0.4034599303863424
0.3277926663042316
0.3482945879226014
0.31929862285589844
0.33993614095720304
0.3040329599102044
0.33069006084265007
0.27589239577223595
0.3165803333568286
0.2693021717959982
0.32021223479692307
0.28911387995295257
0.3233435344239419
0.3390926698181896
0.384384302197548
0.3773753749962117
0.4108536119451127
0.44013429865375747
0.4751331831401209
0.49220123945115013
0.4918489103391286
0.5438670200591044
0.5260903539299924
0.5473937894677795
0.5396792781511123
0.5988315105747521
0.5670463626062965
0.6150998369695098
0.6155700253084888
0.6644840289299496
0.5837752084854685
0.6301375149316157
0.5492311977296753
0.5486142040324568
0.4968193337533541
0.5162934547341248
0.4431656250325645
0.41126259930394776
0.3872616001639858
0.41001744388695255
0.38234127806391377
0.37528879172123136
0.38102214792022354
0.37594793879964705
0.3648756472871872
0.37065343056438393
0.38305853683048524
0.3742225878539269
0.4354080505581326
0.42413579408624014
0.44124088047787813
0.4151576370442747
0.4482875475818669
0.4342300452280602
0.4436082719357987
0.4232894377764865
0.4520542722241581
0.40003660896374094
0.43677491329082246
0.37635068765008434
0.44210694514671206
0.3860234455171171
0.40569944191604534
0.39431696104262776
0.4102727500475513
0.3796821179952171
0.3822357067039535
0.3642270958109737
0.3559634108368878
0.3841044531362856
0.3858474788335302
0.37412588441196065
0.3534362792782049
0.40430001461583576
0.3711359413128408
0.38479320799207223
0.363934965624979
0.42899329843059447
0.3527898045383196
0.4011323966200506
0.3789142634418533
0.4105000373277791
0.3665474240714598
0.4233915512170129
0.4116011083862353
0.4362283051436206
0.39760000940555196
0.440840869950453
0.3933374164682818
0.43904313168979625
0.43166057676023417
0.4705006031799761
0.6129248792021645
1.0
1.0
1.0
1.0
1.0
0.30767453083690555
0.25759104272476446
0.4845347602810485
0.3652018033824119
0.37380203416282115
0.31032766903352
0.35442479025460416
0.2982961214695736
0.3411018235542189
0.2806748233293207
0.28977500738221484
0.2365601149069451
0.28806734891713226
0.27301489445345306
0.28845507219683186
0.25096896705731764
0.2895749001403053
0.27642885087060476
0.3065689381012048
0.33102568032183666
0.3414775822062671
0.38418943840558006
0.41340690556198617
0.45765309536615345
0.44898741806139525
0.4591784477408719
0.49526732535175527
0.5409005734047624
0.4929132625268024
0.550644844118811
0.5505027521590524
0.6319665396991523
0.5864400576941126
0.6529224549298842
0.6340715920847745
0.6582286816311149
0.5916820213143593
0.6106592529871715
0.5330114499907395
0.5161495581076135
0.49375986229197055
0.47348370987883664
0.4388592948498129
0.4202810513992811
0.39641989626294744
0.39606860725068294
0.40111446847403204
0.3743612323355868
0.39453682242920846
0.40063742363051447
0.43219737032969585
0.41486921910812524
0.45618518468039404
0.4348317069886167
0.45886501177658545
0.4465417289477121
0.5025087806726234
0.46459387640469085
0.5028968006503904
0.4656264129350161
0.48848985011323354
0.45942578854871624
0.46734841319124654
0.41461149949418274
0.45476686182686477
0.3996678222191057
0.40608820910138366
0.3907406504356964
0.4037126542601938
0.42083773572038236
0.4455776261290292
0.4326225604667672
0.4216764793016058
0.43510542866563934
0.3993819524811501
0.4370201321625209
0.4043477003639689
0.4457358860883553
0.40196506180201946
0.4456502007206328
0.3815218540771223
0.45795628588585113
0.4186396792402386
0.5032969026610391
0.6759100243691961
1.0
1.0
1.0
1.0
1.0
0.2312573987023431
0.20955521277777778
0.39792448904967664
0.36098541489778474
0.3513513645425778
0.33539431396173025
0.33612554157736907
0.2905128793683126
0.308611278457644
0.28886749396353434
0.3142206341108523
0.2905775813701028
0.323263945531827
0.2913473894723307
0.3322472919443813
0.2950393130867396
0.3732274505756131
0.34007976990506866
0.39843170931840627
0.3831333994732773
0.432467049183124
0.39472712034636614
0.4530259868277608
0.446689348405768
0.5000254187958857
0.4834846008609507
0.5372407457361067
0.5452478323547079
0.5768181756842946
0.5802781486996546
0.624017683283452
0.6284730349255034
0.6296345871471267
0.6568540764976541
0.6438133089464905
0.6521190374322423
0.6089570439613723
0.5825453520474928
0.5288685767939298
0.5186674909386756
0.45342125405285527
0.47124846904508894
0.4260588749202491
0.4448551445684711
0.4162484082507012
0.4653081812007094
0.4381161356680322
0.4791272898223539
0.45681817253471246
0.4627723205020636
0.4442447432262255
0.4912428428467237
0.47154461307815165
0.49735775942452765
0.48450491253830685
0.4908047426567298
0.48923969876936324
0.49210031402438226
0.48136774329456733
0.4696034769711085
0.4879596904654231
0.4777505601242882
0.482544398383996
0.45444054297735476
0.49982227545612634
0.46134664358191557
0.5108347597437348
0.47881852242518813
0.499963065856854
0.4455144921533597
0.47917196152694486
0.42147136301170207
0.47442839967504113
0.4440976201790744
0.47076241090702126
0.4531744721849683
0.47259344976770734
0.45242241631091196
0.4759049799233618
0.46538916489760734
0.48091751083513223
0.47203648023393335
0.4793910204478394
0.5198800907469981
0.4816877492145367
0.47991753738145243
0.4564973406802272
0.48607516700328457
0.43549068072439906
0.4695770204487756
0.45040048979142383
0.4821063019014211
0.43907033777539634
0.5298927797506503
0.4999645441837057
0.5999075586846963
0.7897764132167977
1.0
1.0
1.0
1.0
1.0
0.31915625805888204
0.41203620056501294
0.5131886136243768
0.4443619308235257
0.42573547670360695
0.3932726146243759
0.3989045184095919
0.3700584509164696
0.37887465071980886
0.3475796693121471
0.39980004636347194
0.3604666348029168
0.4221649733047402
0.3921698758997409
0.4316825918082234
0.39510507098167424
0.4335336632098811
0.4048307032195977
0.4326132860600641
0.39200686971320775
0.44974717008248233
0.4409660194333598
0.4722043461776956
0.4659332251375178
0.5320244549750058
0.5410854223568049
0.5792940766081462
0.5733737128655936
0.6342374760624239
0.6365850004501546
0.6751490621728523
0.7096098376034774
0.7293708938921566
0.7600822496034562
0.7673631352613789
0.7655029948125908
0.7314681972319759
0.7253839139919024
0.6699259766317448
0.6550777955337619
0.5761110184052077
0.5693500810614005
0.5174482889362123
0.5253807256221963
0.4729093956818238
0.49616483717691046
0.4767453823869364
0.4804833325414741
0.4584140868682155
0.506673667300749
0.49317207622734555
0.4826253547778669
0.4982151878847249
0.5060037048165837
0.5042125001229569
0.46660084307692323
0.49674064216249086
0.4917874076150639
0.4864340416823588
0.4730845664443971
0.5002927999265738
0.4805195895256095
0.5227518513729404
0.47923562875763154
0.5034521739290145
0.4636673902452378
0.5135674096860107
0.4744779593493697
0.5277998441982403
0.4733985835622076
0.5069666849917241
0.4594893088149862
0.4993135191966057
0.45744399578499434
0.4548041035943961
0.4448487202133952
0.4633122468426401
0.43671942700973937
0.4504968148113062
0.43480740524624484
0.4322541145343587
0.4541965414560051
0.4916423916664949
0.4704710130457765
0.4560564144053707
0.48380189568802673
0.4376220161167252
0.44225283252891
0.4360477734023814
0.4819722321016394
0.44466740052019754
0.4786257380160383
0.42741669612242755
0.48272635320758817
0.41115703002131604
0.450723706499738
0.45670341326587643
0.48102311880799603
0.475304458736394
0.4935418006300802
0.5129701871111048
0.5318532871670041
0.6412151345095652
0.937421373338227
1.0
1.0
1.0
1.0
1.0
0.23613458301897725
0.391366849690994
0.4672453387608166
0.42461352097630184
0.3784266897029571
0.3987348262284203
0.3409573399007739
0.3882664890816675
0.3330942175965579
0.38342805702902194
0.3354879250665097
0.38449969803051565
0.3750016858896908
0.43897227669840555
0.39763395530478834
0.41639902669629175
0.3952088495605405
0.41821795599647
0.3986380978480938
0.41412979916206594
0.41677518259565033
0.43846023258162725
0.4312251924580181
0.4548373010452916
0.496977130120682
0.518553024932191
0.5682630735512744
0.5795565970263619
0.6558543518087319
0.6383759343599014
0.6948461073188239
0.6833489391133594
0.7225265104728896
0.70580992823159
0.7366480010086398
0.6863423944776204
0.6935511953909096
0.6164937939397834
0.6274722722063022
