MLII
0.5
0.36510184810468094
0.5
0.36510184810468094
0.5
0.36510184810468094
1.0
0.8355951750003744
0.8029861058077378
0.6671280380950834
0.6437762794689249
0.6298557465163606
0.630880645229178
0.579690331258066
0.5695970475942741
0.5608425345457996
0.5495109296794489
0.5209413701456548
0.5234204440199766
0.5107375205729621
0.5
0.48107072032372616
0.5010847131862401
0.4690833450426581
0.4613751242348331
0.4485219195758169
0.4956484628544472
0.483734281610951
0.48725761888169217
0.46033426219281914
0.5165415647787055
0.5486761177137451
0.5616684087935988
0.5059744824172565
0.5674490759476595
0.6167222740937521
0.6547842862679263
0.5737239858919849
0.578086165800886
0.6448323362176198
0.6172762523694434
0.5872916683726931
0.605319356520394
0.6767167988636303
0.7515607020900396
0.7398964784914467
0.7846104411417116
0.8473771209881024
0.9004359662099016
0.9015918670149367
0.9356409987007532
0.9432607431312732
0.8758378179032957
0.765551156802464
0.6740752511023073
0.6506142837120196
0.6203941294522679
0.5421031168467544
0.5194092773994514
0.5635624360976335
0.5963445741204281
0.5964517232056626
0.5606416133680427
0.5878690424743972
0.6391997240519659
0.6591640287321836
0.7323442902270869
0.9836908879770137
1.0
1.0
1.0
1.0
1.0
1.0
0.4010695163145145
0.3087740633470169
0.4466750582930496
0.47487114500086536
0.44253487859651697
0.4045130579681085
0.4188592377680143
0.4225821422068294
0.42290174346520837
0.4028259087096851
0.39806179551187865
0.40276903392283436
0.39543711377071655
0.38691653981966845
0.39274324640446334
0.39343274072498335
0.39213731522374784
0.3634066249279836
0.3610234364940291
0.37539921223640726
0.37065029856628995
0.3459894974189627
0.33084491293777063
0.3445316899517058
0.34244483800106573
0.32129163383359516
0.3224426820937151
0.3261250946427618
0.3481472495205418
0.33399123084210053
0.3484127722347341
0.3776044875345782
0.41608970722500843
0.4381573074484959
0.4561030700102487
0.49080839874386994
0.5277073517644468
0.5418791141777831
0.5382946385003586
0.541131050675487
0.5696849141233438
0.558515298172174
0.562350660547536
0.5518966711960893
0.5602397421694196
0.5544583457802091
0.5512248870439442
0.5437147864501825
0.5487901506639198
0.5446988699112015
0.5204840183319897
0.5180151335299195
0.5311819348338321
0.5368642505608163
0.5223685566443962
0.4981511830852704
0.5303347694914923
0.5429410174072405
0.5412796587523349
0.5201793225100984
0.5460038453449908
0.5670986219992256
0.5585597105188673
0.5496307323717046
0.5467278510538984
0.5692419081643805
0.5886467521769247
0.5750243342840466
0.5915621364959606
0.6147309381401136
0.6279764701512522
0.6305917189920407
0.6605090380159437
0.6959699743571263
0.725576138448077
0.6935135765372663
0.6526120968782947
0.6142851545044062
0.5885301783648986
0.5360558684798138
0.502416430072961
0.5191137727962791
0.536366445263251
0.5295418989762335
0.5182756488411369
0.535171133188715
0.5697183310484812
0.6163094580252858
0.7293715346435554
0.9838100135075969
1.0
1.0
1.0
1.0
1.0
1.0
0.5458208057799043
0.3685730632623412
0.4325509240523405
0.45269960758132405
0.4460919996992832
0.4209076268998815
0.4254251994075407
0.4298403973770242
0.4135787351997795
0.3933477544127592
0.39996466793237395
0.40459487262173904
0.3927221086482654
0.3745791530549859
0.384135103540609
0.3920689253933799
0.38038100355018506
0.37318579428947174
0.3766161169835432
0.3817403866910568
0.37367045509237434
0.3550179044688312
0.3438479984296087
0.3544914809257787
0.34684820688722906
0.31317206872783326
0.3130303786006697
0.32586997691188896
0.3312721535296325
0.323813820159912
0.32519488889099873
0.35154785720268045
0.38578248630823103
0.41357610507039333
0.4365808141499879
0.4739050610681234
0.5046166862480603
0.5133400388002334
0.5130882138876548
0.5250415852169963
0.5464013210090845
0.5425836043230434
0.5239187215780098
0.5295787298250659
0.5425762712962174
0.5314246518759291
0.5244716170154883
0.5127530883657061
0.5279292095603605
0.531175916190362
0.5020493445840083
0.49356520472611526
0.5040798160161427
0.5112479112931926
0.5
0.4867724609380891
0.4789467455031534
0.4997924262508338
0.4905252055597088
0.48302349332271544
0.5048247608635957
0.5273867475661228
0.5275570817608684
0.5234632045854625
0.5262433474805444
0.5448788447527105
0.5566426108405269
0.5532626294222613
0.5714566404036762
0.5951934585921108
0.6066807150077391
0.604730328336543
0.6252836789437575
0.6651954640953084
0.6937459636068681
0.6793018830772505
0.6612100580321985
0.6489451257014582
0.6184473366723476
0.5813772028766508
0.5441713566677064
0.5257470985864122
0.5310102521848049
0.511439326599058
0.5137471724891374
0.5324792957290345
0.5513567303376978
0.5659997665990654
0.594885872539906
0.6945506358426896
0.9158653981311193
1.0
1.0
1.0
1.0
1.0
1.0
0.500230762936782
0.41659605512358855
0.4433249652452509
0.4404989392710405
0.45660695846403804
0.45516228908807194
0.44728552202612093
0.4328045569240726
0.4092886443439701
0.41168972224686956
0.42082523586838283
0.4123239792595048
0.3979285596008758
0.4002841368978074
0.40836344528049845
0.3952551551454949
0.3682256236575745
0.3722591309069472
0.38334625150877405
0.37464919629418086
0.3492551968424794
0.35038769023813926
0.3550293601100533
0.3506590595164186
0.33098647505495443
0.3251814763674002
0.3294150832598562
0.33224378003699007
0.324862200003042
0.3283490999688892
0.34448907110543187
0.36717702241770006
0.38164508858488466
0.402266647884647
0.4325872575049067
0.47625563743180493
0.49525415025252223
0.5032633193107443
0.5252811331767206
0.5444575010724976
0.5385755734756005
0.5421228179388379
0.5491999737316358
0.5609880792792509
0.5491338603629742
0.5331576060731318
0.5337213294223863
0.5454833457476637
0.5370079576356723
0.5227812534574829
0.5191630727273574
0.5341806178559776
0.5295149091135045
0.5136388832383887
0.5107438356874072
0.5204416138905269
0.5232949637316969
0.5072851150398943
0.5016435898539748
0.5216876418147914
0.5370831972893806
0.5305830555048814
0.5362422955912622
0.5406440060140418
0.5633587041681226
0.5608877428702866
0.5505065597146135
0.5765167421344959
0.6121948577451375
0.6178804936355412
0.6033224053988782
0.6268715986167658
0.6628482274903567
0.6953752612628186
0.6970234570866383
0.6900854371218814
0.6897824311829415
0.6664451755583122
0.6154528588875392
0.5792503558198657
0.5648503626382771
0.5469854574177366
0.5345232157652102
0.534784276344744
0.5439872319948487
0.5696152643009438
0.5703178943118946
0.5927224600213374
0.6927984232306768
0.9696981093452323
1.0
1.0
1.0
1.0
1.0
0.6177730292633183
0.36036980655292117
0.43745118932765265
0.4792111907342851
0.4732823700632105
0.4611124421104811
0.4591551125950919
0.46744356283360755
0.43710680416821246
0.441880192914303
0.4394571441691924
0.44049313243059285
0.4216769454498249
0.4157842637906713
0.4129493547877979
0.41287943601076016
0.41192431753844005
0.39734256924616884
0.39742537869723105
0.3934526380163902
0.37552396841186747
0.3572000946558626
0.3517292193323325
0.35168954969348426
0.3393554710902122
0.3258933462650562
0.32968458028092573
0.3408026194955693
0.34600839679337303
0.3401946693644405
0.3664969053274022
0.39862659363280895
0.4248494297497583
0.44744116657311866
0.4855287738209976
0.527137081009917
0.5408638709889773
0.535345128728255
0.5487743022402227
0.5707033388486593
0.5702925893177893
0.554014779103379
0.5528956201832764
0.5703446054321712
0.5648753638005185
0.5373762392700061
0.535078033464983
0.5500689411160883
0.5502280709028764
0.529952262796011
0.5135647177252076
0.51754664325044
0.5253685493477616
0.5092982647984863
0.5019947055907148
0.5079485418079275
0.5239288728302125
0.5290531890754933
0.5189912216687704
0.5231622926539091
0.537481161409552
0.5450645834894896
0.5389474762979842
0.5416902656655016
0.5554943881614973
0.5727191840095767
0.5661663114792685
0.5668971815942707
0.5916046919417421
0.6170268137813595
0.6270484004269691
0.6331347098619684
0.6666102146582126
0.6855662740656425
0.6621255474894097
0.6401522571961763
0.6059492434652577
0.5866980267880775
0.5576090021332802
0.5141993522600135
0.49661936453605227
0.5148202894640146
0.5230207354406231
0.5160772609070132
0.5203307002244648
0.5410721435359913
0.5631390283430198
0.6022064612536904
0.7527039508839896
1.0
1.0
1.0
1.0
1.0
0.8959880090260889
0.24954889251102666
0.32841344064445277
0.461903457830452
0.4716211643981952
0.4380895999440758
0.4065769146406758
0.4033822828931446
0.4273344701783934
0.41500799056861554
0.38856923290865825
0.3898324600103368
0.4048808063456054
0.3887373036532164
0.37697380857056606
0.3680583384137203
0.3783427784528896
0.37191301237877283
0.3537906507939428
0.3426353244057048
0.3418502980096708
0.33980797833474397
0.32065820816710433
0.31013403117406346
0.30483393770233447
0.30944148675236677
0.29940059717113754
0.3034557084397675
0.3296891769282657
0.3627564568455125
0.39209977563139137
0.41494909596046164
0.457198864906904
0.49748749982056417
0.501142493634496
0.5033941629948038
0.5116064979246432
0.5426067988614779
0.5396871211821931
0.5220532491685458
0.5169687020482845
0.5348423843322105
0.5304914635671321
0.5008914864699032
0.500477522487343
0.510596683343749
0.511536096293191
0.5012434125483631
0.48542649409298877
0.48712101704807154
0.4938309881087829
0.4864261833378335
0.47894968784059155
0.4826301753164672
0.5006583886388005
0.49519382440023074
0.49803972588526807
0.5088934186854853
0.5233539354933934
0.518938060047882
0.5170695979993518
0.5040143387407366
0.5308957657193993
0.5321516028614579
0.5321650878932281
0.5503775006483583
0.5699325606828517
0.572782632150348
0.574070051954719
0.5794808582710027
0.6135008324552513
0.6512822969418229
0.6465326464035895
0.6201973730802456
0.6042971926125561
0.5726198057147744
0.5278952679601543
0.48946270157308536
0.4850639459031346
0.5052783443486478
0.5009067801337737
0.4895341214958586
0.49228375146494746
0.5200291100712817
0.5356108280170422
0.5726268436515498
0.6972311083110472
0.9556150323479837
1.0
1.0
1.0
1.0
1.0
1.0
0.4271929732519877
0.3364447408077167
0.38854313551524716
0.40931753869286097
0.4182098698867568
0.41929494477759655
0.41824325788956046
0.3967087570967073
0.37861314620072306
0.3819608071601358
0.388704701292723
0.3769789633854602
0.36454985540682844
0.36526448913036846
0.3739750943947483
0.3570324589533478
0.34177539615870167
0.3403702971778727
0.34191134213330787
0.33321969327326634
0.32359455113511587
0.30984092027783416
0.31727553988712265
0.305001077167799
0.29003536727091167
0.2726868787255151
0.28365389163174154
0.29641069144613325
0.29583837526779305
0.30068159135837647
0.32907052596903014
0.34904859366365704
0.3767640022577602
0.41930234532473587
0.4667403886181324
0.5038805918100757
0.5192523736925228
0.516282131474417
0.5287904189471635
0.540672369909746
0.543313411397845
0.5368000484567848
0.5395792052792816
0.5460559023058245
0.5470456645957256
0.5349121478226178
0.5332381884081776
0.5411822543517961
0.5284671370673075
0.514510987987532
0.5109957818006446
0.5269048794296177
0.5274121519661282
0.5191789113647896
0.5089333558194417
0.5258575141586297
0.5390940386487106
0.5318671750455234
0.5321467906671251
0.5380219219896406
0.5579975520420781
0.5585291859303817
0.5517808770899773
0.5580003753451018
0.5812496014474944
0.5818061252531311
0.5780738435073095
0.5870647337578252
0.618840486920745
0.6283891607319174
0.6205738688558224
0.6364286380469897
0.6770140727383811
0.7031786699187761
0.6963130780786779
0.6700396750176341
0.6644083605584209
0.6542907623198163
0.6095610900729105
0.5827432029366543
0.5720376217949587
0.5565672004039249
0.542784301770401
0.5445167362991385
0.549839159685221
0.5672433877008556
0.5767745136410828
0.583863016884022
0.6183105856491854
0.6971481705964908
0.8518821641858725
1.0
1.0
1.0
1.0
1.0
1.0
0.7690717914676382
0.4696482828436621
0.46767943655453925
0.47702659349675053
0.5055352344916788
0.5071854452718451
0.4844115609047351
0.4623874067013937
0.4671988187626218
0.4712264930113941
0.4554942208794629
0.4412014599452889
0.4339046568219995
0.4480406382593102
0.4401806690454416
0.4153978662109548
0.40766067312704724
0.412756514960233
0.4105863325094701
0.3839832366998419
0.3656512772839921
0.38107974455033927
0.3740179567352939
0.35185311908224115
0.3359659188330434
0.3375680468061689
0.33352187009195305
0.328124616669607
0.32674420767723644
0.34695180010125004
0.36726591419230764
0.3825856918063425
0.39452914170781844
0.43951782748151186
0.486092957113405
0.4961954470384301
0.5118119823123695
0.5377194687187884
0.5521529839415936
0.5604359762506503
0.5544819944712138
0.5582715023191921
0.5718763472875439
0.5583970134342142
0.5429614271859702
0.5463031830446718
0.5511965179219707
0.5444365017550363
0.5272371656964057
0.5229018982102975
0.5243860345580622
0.5225874614492627
0.5182905979844226
0.5102496112047821
0.5168860317539234
0.5292150600261943
0.5189921827721876
0.5114101202767625
0.5297295071837889
0.5368006435771612
0.5301603916384856
0.531696175005039
0.5404025732496741
0.552922396868885
0.5663522875703506
0.5714700257389457
0.5831470407972071
0.6024375475353978
0.615433397981049
0.6172139925634392
0.635303650357469
0.6738372550948316
0.6798670925205228
0.6564136828886034
0.6273185399880836
0.6148460404479262
0.5889100448162029
0.5521472473786232
0.515173264558702
0.5194247712747714
0.5277237587361194
0.5128225074817615
0.5008504896262852
0.5145727243685975
0.5493232223515896
0.5580860719188598
0.5789387193450893
0.7056737702706135
0.974031479727158
1.0
1.0
1.0
1.0
1.0
0.5107210640029063
0.39433813553600106
0.43252304383581724
0.43912580851787003
0.43729540065192696
0.4155599750547185
0.4206822232344177
0.41894272994913984
0.41060002671442614
0.3916294875484482
0.38783460466414216
0.40090216261886386
0.3839141084544989
0.3700161279232213
0.37378144948031977
0.3732818774849185
0.3657810975036096
0.3473660479931394
0.3496949998948575
0.350306482251212
0.3354545422776849
0.3139877305918262
0.30434683542667523
0.3022570527163303
0.2947224065715711
0.27587213105948394
0.26615583326281783
0.27783828192834004
0.28654956261458303
0.27804009581579725
0.2836525464299802
0.3216869686768593
0.3480673525045451
0.3744779825189458
0.40200335184526387
0.44202657547019575
0.47212461008547024
0.47430006818890946
0.4696032043574975
0.48922576206076285
0.49974938662132085
0.49017454524711185
0.4851476323588207
0.48333570928462777
0.5051092944197404
0.48999629655524435
0.47746217283088077
0.47818955491241305
0.4780589148706526
0.4645309498909416
0.45676187984742017
0.45690998525092896
0.4698717766809165
0.46904845784778376
0.4547171387270123
0.4538917529101302
0.4683138882859981
0.47791312142895137
0.4768251274731387
0.48102597282714277
0.48906764471846265
0.5134219573156099
0.5148726748962905
0.5160388708079143
0.5307619863476771
0.5526261235499701
0.5666312712831671
0.5789948917855483
0.6144314818006326
0.6408135839998316
0.6229217458407225
0.5793661232107079
0.5509743014291464
0.5346535182333483
0.498295326705818
0.47467392457493096
0.47352168723984595
0.4917722663949603
0.49447517581708933
0.4983802508174433
0.508308176237963
0.5486112312831778
0.6373129432774138
0.825770889764972
1.0
1.0
1.0
1.0
1.0
0.9175828287841705
0.4534555607341878
0.3876710138605778
0.39505585318268827
0.40945927716976727
0.4292421006834132
0.40568668152596643
0.3897123683540183
0.3860130076415049
0.3909417513871764
0.38738617457943764
0.3841435208763803
0.3800352061662003
0.3849787968599907
0.37959013059064567
0.3599445029143341
0.35836140196206867
0.358732806884576
0.353331734967768
0.3308121135421926
0.32844400446674665
0.33768996341833624
0.33303240866772754
0.3090202296827665
0.2841739109713785
0.2902590854619137
0.292068998815948
0.2749768269971566
0.27216896531486634
0.2847976090423737
0.30810171820349586
0.3194167273117118
0.33305702506316903
0.37728356739759167
0.42507782317564785
0.45587684169697396
0.463962617224837
0.48240812966261276
0.5046936295097277
0.5179475482623771
0.5074407521899891
0.5059805041060179
0.5091057766013127
0.524015338308946
0.5127547572387358
0.4997814748739593
0.511648043607698
0.5216533591907797
0.5080152437394921
0.494353949478932
0.4973895364278175
0.5077531098125225
0.4988944890930462
0.4898316885639275
0.4886192989035421
0.49416208582548926
0.494359688701062
0.48903187992660113
0.49538754541727303
0.5145315224941345
0.5258562378221815
0.518477891075154
0.5310102597433155
0.5584358148643023
0.5696590544325064
0.5651437707477351
0.5797705337932939
0.6030273257123108
0.6447508039369595
0.6671484826696696
0.6529529480460663
0.647794588709295
0.6384862920944797
0.6045848082745775
0.5656128059647555
0.5561514315180294
0.54069354516437
0.5148512706683579
0.5029855883979687
0.5112872062638336
0.5216696026645956
0.5312631952639273
0.5279052149459323
0.5428229003251831
0.6100079127940842
0.7881026248712668
1.0
1.0
1.0
1.0
1.0
1.0
0.5145005399941653
0.3810212472780399
0.41526715341121145
0.4272493995026892
0.44584326343173936
0.45318200932333924
0.4325509240523405
0.420167791059728
0.42416853600614396
0.42906086527125054
0.41694558068110704
0.4023243802921302
0.4036953290964388
0.413354503118548
0.39813085315250873
0.3839101213943124
0.37839639525430285
0.3935803282544675
0.3850298616475214
0.3594810819413145
0.34714182804409843
0.3542558247531401
0.34274431619969653
0.3255337905917194
0.3127302055112269
0.3187836341093048
0.3104035156612269
0.29965479873816486
0.298426730854214
0.317129483173668
0.33900111818266626
0.3426083168720709
0.3472273846384842
0.37833979707802456
0.4247131153416417
0.4437929915501174
0.45551307874358127
0.4800136795812227
0.512155001221127
0.5155179885662018
0.5147779565078388
0.5104208779435031
0.5341045269385278
0.5293563827726229
0.5172092763585905
0.5016784023348003
0.5143094565070632
0.5227915062925097
0.5045069383533217
0.49607737564327603
0.5003672779443966
0.5011790645339314
0.4828227428883186
0.4703564313556578
0.4742253388527268
0.498363003458817
0.4909072833068183
0.4784827468218292
0.4783257659353087
0.5015029821321526
0.5003072495737891
0.4931350341794839
0.5059202969480595
0.5289717429003352
0.5407542699604917
0.5399356980429737
0.5472381978521103
0.5788096961894482
0.6231070329736124
0.634222030626313
0.6247563644057227
0.613540000094307
0.5859812234992695
0.5403287348120955
0.5118997695027626
0.49189281701493953
0.4926773203827535
0.4951602521722654
0.478012720697473
0.4835577498865299
0.5210101073735096
0.5233569559781872
0.5429825743384751
0.6151468834553385
0.7810529952580305
1.0
1.0
1.0
1.0
1.0
0.895505087003045
0.30311307743867355
0.325604576720249
0.41087757282309595
0.41194477635241356
0.3995019980811835
0.40013876643027935
0.39415262219783403
0.3895560623649462
0.37622638671917025
0.3825343447242676
0.38097618634198216
0.3713588688380174
0.3543053567668296
0.3624432447516067
0.3699991808547687
0.3435856430992295
0.3270839196907298
0.3443683523368155
0.34974294508130804
0.3392623942042321
0.3148270209408185
0.31374875016044085
0.31435495907152855
0.3010478126743095
0.28394001857529483
0.2794098513290106
0.28839155313301434
0.2835604222794201
0.28170693372296285
0.29575077648553605
0.3294928409527214
0.3598151769472155
0.3721297041323295
0.3950975590482139
0.428309594371174
0.45105939710827575
0.46846656308066426
0.46679371569110045
0.48271568822216626
0.4979208246907455
0.4979312071862133
0.4814595267123988
0.476672822817117
0.4885149390264486
0.4851886085485175
0.47038771653331024
0.4735937227942477
0.4814576787403574
0.4687492689200159
0.4526066585043589
0.45162762232385456
0.4590304468112779
0.46075081919372557
0.4470012950294208
0.4346555392473318
0.4446497329332474
0.4538063241366337
0.44446625734560924
0.4505003824890788
0.46305312571424545
0.46974573657755914
0.4661151731757186
0.46795659949752305
0.491920198839887
0.5089933349743536
0.5160510165393564
0.5187886741223221
0.5436742882671163
0.5756432258933668
0.5962323234735745
0.6020627715912703
0.5983035903282741
0.6029709906261954
0.5853413474421809
0.537554113294574
0.5083322987893506
0.49578268910246603
0.47058921196109765
0.4593228710360246
0.45880003454512674
0.4796441705189626
0.48632652830907086
0.49028852646044496
0.504819213662845
0.5566423376107236
0.6613837041101428
0.8698701099154867
1.0
1.0
1.0
1.0
1.0
0.6694224844052841
0.3379278999672398
0.38881606353122383
0.4178225330559345
0.42915806217878505
0.4423408338114786
0.4224622144735514
0.4039658268190765
0.4007461851312388
0.41509424755252555
0.41590272503030556
0.40146196739512
0.3945475578919785
0.3985001091106442
0.3959774230943526
0.3718173164579498
0.368350314556907
0.3678047591497964
0.37240809170526556
0.35389204819563974
0.330620115376141
0.3414882192501266
0.34403227051461416
0.3317431609465204
0.3155925192012373
0.31512730929019883
0.324762440403108
0.3153634640467464
0.3092655729971113
0.32018905034638107
0.34968909370351875
0.3722267304576289
0.38582535577742
0.416479153665951
0.4648787045129539
0.4941966591868517
0.5082477622371008
0.5273304841600887
0.5465286101210269
0.5541496717151208
0.5429108201120006
0.5415261819743578
0.5523445370643204
0.5550856797694309
0.5409894698154833
0.5242224639592475
0.5304069947430331
0.5485276996864239
0.5331135457372554
0.517028953696215
0.5191373755989903
0.526475269931672
0.5116790391182503
0.5025335128905547
0.5008765165651068
0.5219936007887104
0.5212449035998363
0.5088968493271034
0.50717511752187
0.5260605928770458
0.5342681056468703
0.5253888763154684
0.5201045925642414
0.556495284848082
0.5621535375954375
0.5737207369848709
0.5799682366180217
0.5976908539519579
0.620328704270369
0.6370688989550148
0.6497770204591535
0.6676314830307056
0.6724263311903089
0.6514827699923318
0.6179620839318656
0.5914410869506784
0.5748043781135309
0.554269095351691
0.5124514740629048
0.5029315788001887
0.524580370247369
0.5201842152803425
0.5081886215812307
0.5163160008778752
0.5404587437194868
0.5539723799311049
0.5667340877604825
0.6948087663463066
0.9515792110248459
1.0
1.0
1.0
1.0
1.0
0.5222415367880566
0.3805955518112917
0.42783369643642655
0.45776452791133
0.4579280439128273
0.4253878972686202
0.4313125224076607
0.4411064231821367
0.42956699966907647
0.41687455933788975
0.41157778656818617
0.4275194089441906
0.4145093293855563
0.4011646112569812
0.3812996521065062
0.4006461162797736
0.39651892776274095
0.3794691397290304
0.3580763487696652
0.3598859600859899
0.3552274170747452
0.33509098170312146
0.3211618391795995
0.31779257894046875
0.32391120807839213
0.3085192817410222
0.30154853910141466
0.31367716490612174
0.330797013834895
0.3419741764086258
0.3551919698448145
0.38616680064081965
0.43447356334114506
0.46239054909658994
0.4678916846201332
0.4882490892924321
0.5178279207468879
0.5282975814675221
0.5205328146717539
0.5283002861268046
0.5373036512794777
0.5413304458557768
0.5276981239166079
0.50892703543961
0.5202345251770335
0.5213559414987408
0.502436114869509
0.4965974370076093
0.49473494331410306
0.5059188016549846
0.49484174052910196
0.48183387191744603
0.4870039410248398
0.4946896002411011
0.4827983258724042
0.47795778920357596
0.4870449240621005
0.49874877525727673
0.5001768749552815
0.5031960709712499
0.5087881504189171
0.5264461080077781
0.542087611442821
0.5367331569085141
0.5517914414270888
0.5705305415031786
0.58823032451526
0.5911865094717423
0.6078253533453254
0.6438890856653755
0.6572621083694993
0.6377768944312507
0.6029140283911757
0.5787042931472189
0.559349474035914
0.5255885714921246
0.4904165118897815
0.4975912055992481
0.5111068064530662
0.5049781918286682
0.49650312796177076
0.5081602921016203
0.5272952764932942
0.5383992641782467
0.5665993396884442
0.6803852438703281
0.9217902239927614
1.0
1.0
1.0
1.0
1.0
0.7173665827971802
0.3634394876254741
0.40280872364133113
0.443146276979084
0.4422673141311395
0.42147407898698425
0.4248160587387268
0.42172878008355674
0.409517398737478
0.40081192921196573
0.4060934314608552
0.4128236675419191
0.40288082241301854
0.388996146385454
0.38830356329365145
0.39890228696120955
0.3918383979440566
0.37360109487135584
0.36095658076391235
0.3607752387078025
0.34932724614430477
0.3359548338431756
0.31970994531459584
0.32509951316988317
0.3134392702332684
0.3062443754789972
0.29067270971618536
0.3042400194685051
0.31501589815180003
0.3315148562828833
0.3507968669804886
0.398048454645907
0.43611824037038566
0.4631771246417394
0.48035389394910855
0.4976049297477858
0.5129006737413934
0.5181722470943436
0.5088271250984094
0.5106848572985258
0.5231902178000658
0.5247360315191594
0.5145780009794423
0.513570392190252
0.5200876469358351
0.5210971385208802
0.49244127927658726
0.4898732620334849
0.5035427277214388
0.5010660122860126
0.48464686233017396
0.4754031475394078
0.48512890602841685
0.4845228138912403
0.4796954145251271
0.4787882802915058
0.49549939980892876
0.5082900715542562
0.5059134299321791
0.5091749601720161
0.5208266924193807
0.5555432690717521
0.5550653804454069
0.5594077669485471
0.5684678858837154
0.6017849467363008
0.628696270769907
0.6356925205647803
0.6444332749129339
0.6409410084209451
0.6286312893689663
0.5975111144558201
0.5574953192587538
0.5505436469066948
0.5246004282305102
0.48998957311814095
0.479506060047576
0.504630590876407
0.5158013588250625
0.5063331261590032
0.5207827444239166
0.5535888474169042
0.6215999219946916
0.7953001876738541
1.0
1.0
1.0
1.0
1.0
0.8392154661888114
0.3800604994249367
0.4018101998440942
0.43171819121348276
0.4351212635443648
0.45733503654833446
0.4468409476314516
0.4303144291050421
0.42495488086784616
0.43288185949736474
0.42802527056432665
0.40795045900523597
0.39275262738339156
0.4006399776861276
0.40707252609725303
0.3900161710219187
0.38024597592769926
0.3855184747610827
0.38435142137497863
0.36444692425849334
0.3489542801962676
0.3467944212667286
0.35160190343854003
0.3409939617421807
0.3153734186222426
0.3107719268267061
0.3204888676677478
0.31684741635703817
0.30337226686197044
0.31706399381077566
0.34699472998368247
0.36401701851921525
0.37665348007638483
0.4099664325422241
0.45064723948443985
0.4828803114912416
0.4997192672121245
0.5121981605470102
0.5306778552641128
0.5493895821713518
0.5443128300776118
0.5326047916250255
0.5382963548974699
0.5474396116403074
0.5399451104395724
0.517220160299023
0.5241994263277089
0.5333053813975134
0.5281772715853035
0.510344196795559
0.5138278365315931
0.5164359804338422
0.5085147009936963
0.5022415977136344
0.4922884078379849
0.5084595445620947
0.518270496888644
0.5047117715696852
0.4933209797560162
0.5106929745382331
0.5182340049644714
0.5153857808489739
0.5232001597762412
0.5416320783887976
0.5654876133364963
0.56726496661623
0.5746280000620668
0.5848748532585812
0.6101533113529459
0.6378904621328291
0.650280883625751
0.6637026157643026
0.6609148135718451
0.6357460664046333
0.5963086514421707
0.5737105235448748
0.5689923496750153
0.5416713370807733
0.5123728692725992
0.512321637695162
0.5289032718492138
0.5288372053455488
0.5205157032185495
0.5158842465489928
0.5341233851722191
0.5570056235587798
0.5745930893209019
0.6287475568081794
0.8055490757943067
1.0
1.0
1.0
1.0
1.0
0.6145624610592617
0.2992178325138238
0.3953946645517993
0.4620216148133487
0.45892926468396533
0.42519301659228814
0.4255085884353676
0.43492149013982545
0.43254525070782784
0.4223105977321658
0.41494425691324804
0.41905790757006606
0.41957355740292224
0.40519910957416305
0.3927317545567268
0.39752250943758405
0.399751016928692
0.38687998744321817
0.3771381381247852
0.3761160932524869
0.36952449651825786
0.3518819682203868
0.3396484003388689
0.3416364945158893
0.3403951860690907
0.32832532784590096
0.3060511511088748
0.3068942105783926
0.31469349085077913
0.31222518217167217
0.30697740000524104
0.3213397484349873
0.35046060671846446
0.377231650125078
0.39402538138187404
0.42513823050821326
0.467516310200829
0.48653037874702304
0.5012762369163882
0.5064151915773007
0.5228312149618038
0.5358896142188725
0.531288073184188
0.5196435810379303
0.5272041052796453
0.535251425921581
0.5213455825926792
0.511469106057141
0.5104332816060049
0.514568209734277
0.5068913959890776
0.49130629053660047
0.48553892774552665
0.49306967283107594
0.49237615483576286
0.4778120161297964
0.46951371717945795
0.4829328932998059
0.47758821223872827
0.478004857735323
0.47752980220077
0.48845355843471383
0.4975470127229665
0.49575139309481137
0.49027201037139206
0.51306690621812
0.5349041019989695
0.5318725207103266
0.5320175987969249
0.5540102799592821
0.5678461073647786
0.5711025330032216
0.5823067905341957
0.6092490847946583
0.639341659672124
0.6234919791732386
0.5869942161536942
0.5641643202612959
0.5453705757425367
0.5173783885771082
0.4812018420318842
0.47517364093503334
0.5050187597565795
0.4954266917881987
0.4790897569772595
0.48919698579610016
0.5162575824125567
0.5373160556667823
0.5662347604366438
0.678594563721866
0.9215992900365233
1.0
1.0
1.0
1.0
1.0
0.7042476000435749
0.3414844313474207
0.3774510226072566
0.4211831062348885
0.4338735944568902
0.4142389178860397
0.4103234947222476
0.42179041536611556
0.40873451576341263
0.39556941539690316
0.38137396767761317
0.4000511494617515
0.3969203453945047
0.39118499343782603
0.372480492322775
0.3757570839938793
0.3736691380556268
0.35959390969113486
0.343810911441779
0.34736793230083174
0.33891887745910293
0.3215795012802074
0.31305367083156826
0.3081469323226032
0.30325415281859497
0.29802159807169154
0.2934482454503543
0.29460328947055725
0.3025563217335247
0.3058909083238076
0.31743594644551437
0.34078739830440336
0.381289036236533
0.4106150232850214
0.42376933386822324
0.45595395470496786
0.48664398141380866
0.5005084554404681
0.4957810229125316
0.5030742906509249
0.5153733040296397
0.5191114710301191
0.5102250469790922
0.5044337378394291
0.5126389460817332
0.5121322606411997
0.4944433942816464
0.48628681546178054
0.4970658524646054
0.4973834265680684
0.48240988394115625
0.46591191518595804
0.4728682778198836
0.4775358411177496
0.46800920643982097
0.45123595670867367
0.4666756450060296
0.48361978518228443
0.4840486999793018
0.46307690508417537
0.46722537292705446
0.4859224958612171
0.49842614617040315
0.5007011827447921
0.5166851157342325
0.5394707422155477
0.5488077109855091
0.5533488541169761
0.5642832560112826
0.6059881003763179
0.6335167269481297
0.6253593353161232
0.601784489594299
0.5856931315937662
0.562525131605598
0.5253613442453479
0.4906446707842556
0.47312038626668196
0.4794470984471809
0.4849129253197962
0.4730874693884366
0.4828193861673884
0.5060754702407853
0.5160209513246778
0.5394558745592881
0.6485717648588467
0.8836280925316842
1.0
1.0
1.0
1.0
1.0
0.5316581830518218
0.3089536913786166
0.3931842026065038
0.4436456655688753
0.42812267930609443
0.41670542347850487
0.416182420598919
0.4265522817334689
0.4108949596152679
0.40444785166703345
0.40212327350774285
0.41358393439197216
0.40498647759754125
0.38765133950218206
0.38491207649424497
0.38970356587927146
0.38034583304131536
0.3719436325773597
0.36083698939076597
0.36259390141693487
0.35780688835407587
0.33587821451897126
0.3265563122814978
0.3327747813608287
0.3360524718584038
0.32353937709829045
0.3262794204949513
0.34546305536415955
0.3796795718120764
0.39402669238240257
0.40791256679258964
0.43950004195080894
0.4882191411615774
0.5062179657235868
0.506506259363651
0.5281434214225011
0.5464796490188093
0.5475443196974326
0.5310862196135322
0.5339204410152999
0.5466134475994129
0.5421251604995834
0.5230357472324575
0.5224481380087973
0.5314251363586505
0.5313425630664523
0.5106009962371109
0.5096794947880231
0.5202616806590771
0.5272917430491887
0.5071293721450005
0.5009431649980971
0.5156029806097344
0.5187010850613946
0.5157885382347518
0.5064891817492498
0.5175656759769878
0.5310525892247934
0.5262140871747427
0.5323027427527175
0.5438258918226481
0.5646111800274518
0.5765495524700046
0.5812699316277686
0.5892231887586081
0.6241931503616936
0.6517611063388864
0.6606251907406298
0.6488929942646797
0.6350198431755772
0.6136788893981648
0.5798108483762355
0.5571534760568395
0.5342960475276961
0.5218517901406134
0.5138178872172242
0.5158987659019456
0.533366035836327
0.5393700530108788
0.5336549597505783
0.5358044129765912
0.5750847338850498
0.6255102333422181
0.7565962607497576
0.9740997527742632
1.0
1.0
1.0
1.0
0.8343703398522633
0.32697396824486485
0.4045034224035726
0.47375486933363115
0.4620639777080159
0.44652243458926144
0.45128242191115175
0.42694618125062184
0.4236555905579138
0.4329975588848932
0.42859092443699726
0.4125674817865882
0.40178419599486287
0.41925660808508647
0.41380017388999146
0.38995534825581374
0.38261447327606773
0.3902738911871758
0.3975288947829013
0.3713695186795502
0.3602807368783939
0.357486745570417
0.3640718035697518
0.3490560635585328
0.3250738107662226
0.3122083796861596
0.32918144836400637
0.3274499219049278
0.3194865069232883
0.33946238645737387
0.3669353109472559
0.3954985966002019
0.4112465759349998
0.44283521202650195
0.4825326908602709
0.5037367259214256
0.5111732042103805
0.5137343605205789
0.5294141055866558
0.5411280395445741
0.5298607180902655
0.5174047303300866
0.5188830307232003
0.5335928262812496
0.5258530689799248
0.5126232791043971
0.510137790975181
0.5206358015909645
0.5122653343973929
0.4971830609052087
0.4917398526717326
0.4987286903964532
0.4972512772280962
0.48743507470825687
0.481092836661208
0.4924993209767711
0.4927719056401371
0.484305222215524
0.4866365513479467
0.5019427506759985
0.5140311336935802
0.5138410829443674
0.5225327343448269
0.5512701327452741
0.5632141803049768
0.5604530748897985
0.55606909819221
0.5799202019529479
0.6071370472871618
0.6258948686456514
0.6330027846140164
0.626515033821077
0.6321611419993685
0.6045255975352198
0.5629888888968644
0.5405328205139805
0.5298376244787744
0.5056869964170427
0.49350227993774237
0.49979823181319655
0.516677467503982
0.5194025951858802
0.5133650667116958
0.523781761959154
0.5700598995236603
0.6539202125994127
0.8280595880189046
1.0
1.0
1.0
1.0
1.0
0.7770606641085117
0.4003287654118461
0.4086071953126371
0.42785303261171936
0.43945678265145566
0.45875851375655036
0.44284695520443185
0.42343217794265975
0.4176333722131534
0.4258946028636448
0.4205017414736124
0.4007652077064538
0.3915138349248223
0.4017996353345444
0.40288441755906684
0.38593658990797525
0.3722173926541618
0.3775403815686465
0.38157250069617066
0.35755447455930867
0.33712303793771936
0.34174092587061156
0.33857678261944396
0.32364936184452153
0.30671783905784966
0.31238858003830733
0.32235625298980175
0.3203632862729501
0.31968763775355963
0.33463802659047776
0.35873708453052827
0.38318957238249923
0.4028990519572838
0.43877747151476987
0.4841009070297998
0.5002000217822358
0.5047155115798592
0.5102877341489099
0.5273101150458852
0.5354216026732357
0.5268167973372249
0.5200085469390892
0.5343665314947175
0.5310408550188236
0.5064701906882096
0.4940409743544306
0.5078570374947475
0.5179897378155833
0.5038261502703455
0.4840275162449238
0.4878532355859607
0.4975630899016658
0.4896290927258993
0.4779920083387639
0.48189068855262035
0.4924242753950855
0.49231734720556863
0.4899053042382575
0.4955818656154197
0.5150585310234458
0.5180728103414742
0.5045808150472677
0.5189639703978752
0.5443810585863635
0.5602433938306491
0.5519786556842443
0.5564710370622221
0.5788556476821499
0.6144914992031553
0.6246128913444055
0.6275018787258577
0.6386625412755903
0.629086595795574
0.6020499632494586
0.5644761196475195
0.5538435375788714
0.537303375189023
0.504616147703178
0.4797844158706546
0.48770471163865253
0.5061546289839133
0.5060265368907488
0.4950181966783148
0.5004886847970358
0.5252396344374752
0.5530614357641916
0.598812016562806
0.8017049181199642
1.0
1.0
1.0
1.0
1.0
0.8266318712115307
0.43125150599500783
0.40536837045413093
0.415315783326096
0.4337101124159977
0.4460041594628758
0.42369317109880245
0.4259527188392541
0.4278007321301406
0.42356912522547246
0.4046425214896937
0.39670246213041815
0.40802595107955025
0.39884478305707577
0.3836834717739734
0.38408269032923287
0.3848388456992634
0.38396419449174746
0.3637432286255218
0.3565837011696783
0.3626837080036552
0.36173753687182303
0.33425347705078057
0.3233519205193759
0.3252517956399029
0.326198405558759
0.31241437306544134
0.31104299318249706
0.32086578417289147
0.33531069936069746
0.3415754534497776
0.34982609850251256
0.38464185696832054
0.424429645157207
0.44442640343351786
0.45818036149246943
0.4772097280779463
0.500205613769357
0.5056338333640835
0.49996574520418796
0.5070529495795991
0.5205197951922969
0.5200186707966269
0.5020252569776043
0.5117960049879524
0.5086139485433835
0.504178153607527
0.4988821393649345
0.4838823611942254
0.48185299728825404
0.48703556155135164
0.47483141094162146
0.45343074121503113
0.4712518531454151
0.4796310264089202
0.4711590352454542
0.46514915723014755
0.47912533948277786
0.48703450584778524
0.48418745870200064
0.4722845786480887
0.48502001658581645
0.5063157280971444
0.5030032635342089
0.5036341446745836
0.5175802371857915
0.5429046154910004
0.5537612813580575
0.5472675713869207
0.5547530288301563
0.5865832487853792
0.6211687544715858
0.6268662279912557
0.6096569626852155
0.6164800627369724
0.5984215886413539
0.5536020266001852
0.5291749991660385
0.5078644604129541
0.5009543896669458
0.48959186617383194
0.4812815157315975
0.49144852145917806
0.5066226263756493
0.5062051829826102
0.5119435369960575
0.5300829792785418
0.5964631041425449
0.7221386198851589
0.9422795545111139
1.0
1.0
1.0
1.0
1.0
0.7485646087575754
0.36001025192330527
0.39210055139843814
0.4282754467626968
0.4440871580966985
0.44043163966815724
0.42056428462626083
0.4066178050960508
0.41054909120987737
0.4173696956995716
0.4039229433684657
0.3964148403347819
0.3908935876741168
0.3946814740495867
0.37897608958107687
0.3671612731394813
0.3701966113501002
0.3736896548059948
0.36057132628011174
0.3441520363305085
0.3384736917811992
0.34674620059059735
0.340372839412131
0.32271396790847706
0.3023441524403802
0.3075676651653814
0.3031966102081233
0.2924220073711482
0.2864867024069968
0.3120689749234908
0.3306150647181167
0.332460185119983
0.3486454452541601
0.39222850553032984
0.43267448418398013
0.4549949384953023
0.4693378151303218
0.4888134872411496
0.503647675694746
0.5012395466192612
0.49448502860080107
0.49555457980539525
0.5157397782777995
0.5086833943852789
0.4869688963967465
0.48735221758293595
0.4956526331430259
0.4920219287611377
0.4728267185189699
0.467764292175932
0.48031432700913274
0.4858680626127042
0.4651680993492757
0.4535390114136807
0.4715160594253501
0.48492418115410957
0.4733595169581271
0.4670491821715587
0.4893822154978514
0.5094840591040515
0.4977548648874174
0.49288280200173984
0.5088128699958945
0.5298023032358594
0.5326325192693424
0.5252365564526651
0.5411133384483837
0.5680986723932816
0.5886265203266342
0.595974343628829
0.6155005333339045
0.637908961098032
0.6249275165100692
0.5974675640846355
0.559418326064664
0.5468779695748949
0.527024495630963
0.4815498163543125
0.47376988229615824
0.4881963263601352
0.5032126348368807
0.4920451023142525
0.4868286262353741
0.5185040850603906
0.5650055811065787
0.617692422681956
0.7767220346306815
1.0
1.0
1.0
1.0
1.0
0.974676394794629
0.4110314263550373
0.3777597142868993
0.4205363520080474
0.43970253608740206
0.45722433180713534
0.43464755532585836
0.41414216060143605
0.42577165213248486
0.4296425927659387
0.40936607835332195
0.40959826116364384
0.40706368143233107
0.40851335050045223
0.39218757490115214
0.38237356512806603
0.38239869038075536
0.3912653634132338
0.38340410986332124
0.3618647221399124
0.36533154046845856
0.36803456065473583
0.35197547094571996
0.33858509287172545
0.33028816625889634
0.33027860793773584
0.31971007986447975
0.3063696563950005
0.308904869058639
0.3279295829340712
0.3377964732370227
0.3404516608714335
0.3594394838284303
0.39779691092623076
0.4317395903931917
0.4603445673532831
0.48621124646459746
0.5170773548681489
0.5365032966330568
0.5307307470066747
0.5248703330093851
0.5229674291836158
0.5299250113817742
0.5224801282070974
0.5106432297382785
0.5049098614410237
0.5157672664374908
0.5166132884635968
0.49999258846082356
0.5013859174620553
0.5100027131809985
0.5066335912227674
0.4831698256946246
0.48987822221772276
0.4980016497089377
0.4981298832113571
0.4852271034216072
0.48510693685753664
0.5010128645753267
0.508402426915988
0.4968512770384065
0.5000326174575049
0.5143368875215779
0.533122479339709
0.5381242671984882
0.5446366779514105
0.5589235314356935
0.5769901564657637
0.5918339025994165
0.6051170395192651
0.6261175793229463
0.6571202020635049
0.6385752581386122
0.6129860290477451
0.5738136995442991
0.5576691752362479
0.5430149000637867
0.49267342573916
0.4756909903075556
0.5006623061341128
0.5067410379814348
0.492260382678268
0.49636931834987363
0.5232729481645181
0.5512525724535589
0.6049650986629779
0.8049595956528265
1.0
1.0
1.0
1.0
1.0
0.515097603539718
0.35530071833664206
0.39871439842201895
0.415858257736798
0.44062977876645615
0.42687433418556564
0.4071591834118415
0.40850933451570653
0.4178505289295401
0.403461293154011
0.39227508563568997
0.3874752620116996
0.38924916265999954
0.3942100089308851
0.37731808528840594
0.3577449308883696
0.3747392970760166
0.37399219503474557
0.3509349497194116
0.329394885971832
0.33500119564570713
0.33950543129150235
0.3295379945727196
0.30377740541603354
0.29958889923595927
0.30861213451036973
0.30814766481658157
0.2956994417438474
0.29721640778212394
0.31445996218454914
0.32166044880517003
0.3309492046580176
0.36546359151758084
0.4015591358336107
0.42705504043761955
0.4334891010637518
0.46711541989798544
0.48188698175243105
0.49731268065642215
0.4960381265311984
0.4963680205237253
0.5055961739492979
0.5097613194654718
0.5050309297707127
0.49807477578648474
0.48944712506479926
0.4915685341692231
0.4793667249106378
0.4733546621294343
0.4747942558278638
0.4788088102295169
0.4736147114100529
0.4623905421957096
0.4702338894039838
0.4782644141304653
0.4785040027846029
0.46764012513827147
0.46746170777528767
0.47252575713458
0.4762964550935657
0.4677057901070166
0.469914832486818
0.49237490329415
0.49436677352241565
0.49123958029981035
0.5003243689692215
0.5257551271593168
0.5436992398486783
0.5443801180993757
0.5421310388250766
0.5862752822059826
0.6168682583962125
0.6103740438785612
0.593319321719099
0.5877701193496887
0.5590613630327138
0.5292784359790669
0.487658955441516
0.46639538146372406
0.4852233080211956
0.4922720235474712
0.48398247859107757
0.4836585523984695
0.5009059857793009
0.5125469311082712
0.5139004494159671
0.5361527095990329
0.6201197931368514
0.7637640358304851
0.9683024669794189
1.0
1.0
1.0
1.0
1.0
0.44480087053043693
0.317434862251731
0.40811977518695164
0.4170373435145329
0.412308772405548
0.41788066875516144
0.4009282519405275
0.3815902234340284
0.3784870694346773
0.3964382331060838
0.3882186955981498
0.38002397323446163
0.373833579345373
0.3766585077148751
0.375638642836302
0.3663071446814272
0.3527483005919738
0.3634457947179817
0.36057797283274445
0.34594228661418014
0.33716144387224933
0.34180012383841935
0.33465999706353766
0.31859142603608454
0.29606023588157504
0.3059119391077522
0.3134307116313488
0.3023620894367727
0.3005180967227451
0.31747403631478743
0.34133766395853443
0.3527010215798726
0.37209637325842565
0.40424041107508996
0.4427730358352317
0.47188164216760187
0.48693211225990335
0.5054623796443237
0.5236526953742436
0.5304011181680786
0.5235584439761374
0.5204284537654476
0.5289869840889363
0.5331709814902308
0.5174080357713693
0.5125283002560747
0.5127024067817009
0.5220882130132175
0.5146748274298452
0.5043189692807546
0.5059408557375671
0.5037317267127268
0.49411421169439773
0.4935749468177241
0.4952596105664363
0.5023333062938891
0.5047699690270202
0.4915413656162525
0.4981924715683421
0.5108869924721146
0.5114926107806302
0.500977541319289
0.5050038675754256
0.5281643917591424
0.5350709985104277
0.5263143551182791
0.5311549277579031
0.5581275818780733
0.5639380163133467
0.5663807017075954
0.5660450081788622
0.6073621025260556
0.6343744215002559
0.6367709736477316
0.6246212796905128
0.6221966141817024
0.618689692022513
0.5760942578123419
0.5346180324362666
0.5179230372822692
0.5111377155040546
0.5011774311007281
0.49550539861194076
0.4984649151829699
0.5188115542433639
0.5239719338921119
0.5178580239820454
0.5439871786300084
0.6368526790767823
0.8420892086149039
1.0
1.0
1.0
1.0
1.0
0.8662498229917945
0.40504801965193654
0.40305267894921953
0.4207973022927559
0.4269418858103057
0.4322911221193716
0.4213283254377397
0.408496000326706
0.3993937964396701
0.39890678287172754
0.4125676943161746
0.39914636830848066
0.3851485974340959
0.38412421355987936
0.39142697652061004
0.38430581778791295
0.3660845835955938
0.3652639780679022
0.36010997540781087
0.3554557097510701
0.34172760322941464
0.32147446259161905
0.32705284032146215
0.31927860972484956
0.2990823814284798
0.29000679255139855
0.29983520612478076
0.3076691342927106
0.2951508141335134
0.3018501314675362
0.32551883780389507
0.3498333618454996
0.3718104177821898
0.3951818729207064
0.44212292056987523
0.478821349022613
0.48648880940468553
0.49332693133745964
0.5042429545722447
0.5236797153102436
0.5128587317875775
0.4972936688486257
0.4951540053428447
0.5117923558486867
0.5097068792143744
0.4966025934550037
0.49272025881351106
0.4999321480519878
0.4963525243206511
0.4799346917678185
0.47240817955389947
0.47787092597760755
0.4762952154826093
0.471013620121714
0.4644284186106904
0.47539359260009617
0.4901318094167421
0.48018646431635253
0.47539253117958
0.49196743052087016
0.5029709333464825
0.5113499583620722
0.5065301117041423
0.5267062504379533
0.5517220201975497
0.5524390662897113
0.5497470142403701
0.5612218550884522
0.5977769276037137
0.628629986078838
0.6309098587160881
0.6205367019979976
0.6171714633482567
0.600178816599602
0.5598248091133452
0.5323638477115263
0.510823026640058
0.49513457733399113
0.4916212616482631
0.4823425681261013
0.4858464375707555
0.5036028913700406
0.5041015506804035
0.49738850774018284
0.5349940736377378
0.629258466608624
0.8379342189919068
1.0
1.0
1.0
1.0
1.0
0.9270985638790028
0.428805021005186
0.39354566682943615
0.4274093469845677
0.432537833965858
0.43505083248378246
0.4352114823359748
0.41832560230412935
0.40366484104015876
0.40593657663161437
0.40420716261379575
0.4049806467037298
0.4002764603677866
0.39265330427621997
0.39895084247918433
0.3847906702545293
0.3699596226033206
0.3684686213245224
0.3746266800550062
0.3597086794432162
0.33990654350022764
0.327631174885248
0.3277515066990328
0.31460146307831505
0.2992361525168072
0.2985887533290927
0.3040520979025911
0.3077850247779149
0.30315676597276975
0.31771535227033104
0.35185227964510385
0.37863592197141005
0.40921717261406415
0.4423899828795944
0.4770936227068188
0.4952078635370942
0.48704901460756744
0.49432984787647116
0.5069800318164399
0.5139943952880045
0.5152513782504319
0.49890837245438835
0.5045329653588688
0.5095423866599588
0.5060005883139947
0.4900061254303207
0.48681039318941055
0.49392371101786986
0.49245870869176744
0.4832996793404793
0.4786216010457884
0.48139087211199766
0.4824547673343688
0.47130424179113445
0.4646013756133045
0.48662783501582274
0.4895266522383633
0.4878501889606455
0.4943955358951956
0.5068867593280737
0.5318554329110915
0.5375233043206397
0.5397433650160013
0.5541480091474096
0.5734259986570066
0.5890657106370731
0.6036287044093053
0.6235810679211942
0.6481173835974128
0.6345611475477526
0.5915183191021176
0.5626253779368966
0.5562050942722305
0.5345187741791649
0.4938309073706343
0.4932611872879001
0.5035389322924511
0.508169769385642
0.5009720283277723
0.49642108412113534
0.5307070802844243
0.5506614171656028
0.581013217503391
0.6879456689068764
0.9165067890330356
1.0
1.0
1.0
1.0
1.0
0.9116556661839768
0.4402298792070754
0.40061830154780165
0.4387247696885644
0.44316118896232287
0.43591594133378314
0.4236961475713463
0.42931765989212156
0.42867693603783474
0.40737968046437667
0.3979572239246683
0.4114692396218132
0.40745621262669396
0.39356622786953405
0.38562987357549305
0.3852900367156643
0.3941029326618442
0.3725397133188335
0.35599332590093713
0.35879972599209864
0.3632594762832144
0.35169023577272585
0.33538650559837835
0.33142648604288605
0.3234488140628381
0.3160930790934967
0.31226849485654834
0.3138693031957155
0.33145389775691525
0.3498662072580741
0.3677261495033704
0.4030953301163674
0.4542134597446674
0.4829753946594659
0.49774517598894497
0.5081460712146826
0.535451611036112
0.5415024537406261
0.5329893564672393
0.5237363661168306
0.536478206210032
0.5433775975892967
0.5283071557017875
0.5166695686811005
0.5199477017761127
0.5245685374841845
0.5238132572023207
0.5113787462797816
0.513664383753476
0.5221023946193926
0.5156624115031232
0.5022005212438753
0.4996819931952052
0.510304848554894
0.5144981521715886
0.4994964215025145
0.5042611933563345
0.5205601123978539
0.5195036429184884
0.5214810789057751
0.5278426568429395
0.5506035262093487
0.5707307724000179
0.5714216297990682
0.5741330474554636
0.5959682549015349
0.6131599667080014
0.6292748998897325
0.6385509218697842
0.6573212669134375
0.6588130860484266
0.6474693428333862
0.6226077210187848
0.5928721808274142
0.5854511172512361
0.556115777088781
0.5136330419544342
0.5136995683246487
0.5345828740649761
0.5288354386702799
0.5221958720681246
0.5420007895986105
0.5656940054121515
0.5950986157193529
0.6527635198502912
0.8291084739880284
1.0
1.0
1.0
1.0
1.0
1.0
0.6399596411182567
0.38314403908204037
0.4187505966245241
0.45200499274767864
0.4630819164524941
0.44502401277733944
0.43462624897918073
0.44563376457222537
0.4280119212149865
0.4251468924331605
0.4204683267461201
0.42819148883066777
0.415627612971714
0.4101369302461183
0.4027695260448933
0.40538835746133517
0.40369440142750185
0.38670154156522785
0.3755277976742385
0.37250223996507426
0.372968947948666
0.35997910363436325
0.3393471311553769
0.3361416539117894
0.33426731282555455
0.32257271426506823
0.30521196858308597
0.31452895056249436
0.3279161009800253
0.31828754367508383
0.3247608493047262
0.3410463176263443
0.38243038795200535
0.4098786023117912
0.4233010257127418
0.4698503577974362
0.4999417394962366
0.5155981502428123
0.5115167746986493
0.5222122247935289
0.5387827878869031
0.5369592130058167
0.5199534846880443
0.5102196882366549
0.5260728795346596
0.5255946386086737
0.5179425516830202
0.5021182833491643
0.5099857320525734
0.5059337891245961
0.49969493066847076
0.4901014015480872
0.4969130348504507
0.4996848567348141
0.4991412207475025
0.49502065492896996
0.49276362486664926
0.5083143387016194
0.5105411454304358
0.49418269686973143
0.5012122433534388
0.5211529726791131
0.5264623059776576
0.5309629612422408
0.5447639126053888
0.5835932502315007
0.590443922071193
0.5896125775290262
0.5990926305936456
0.6444681138785285
0.6650526376376632
0.6452706919882205
0.6230533984524655
0.611318605416927
0.5830829364265859
0.5509537767843802
0.5227139066142606
0.5116192924523568
0.5129156885998672
0.515756615951951
0.49986295534235337
0.5102052216612292
0.5281187978367816
0.533181257863435
0.5271041121580672
0.5536959593556362
0.6411566346080606
0.8392872903847876
1.0
1.0
1.0
1.0
1.0
0.7623350044133607
0.35674035623157174
0.39398283142049795
0.41236351099313995
0.4205003121861477
0.4477982579121245
0.4466462106939992
0.41944338278034393
0.41707176382626254
0.4219239173476077
0.4169744047310614
0.4123055026514001
0.39478677184519817
0.4004436396295675
0.4035854266270178
0.3982325963031771
0.373542091927774
0.3818807863129624
0.3877940962697786
0.3729408659082355
0.36336359988050465
0.35149496216443293
0.3580844997703875
0.353760871636625
0.33648115022011177
0.3241198526795375
0.3236115176304436
0.32240467121627475
0.31696589736177233
0.31817359919329785
0.33375875117831344
0.3547221222866795
0.3599571570742612
0.37768553022272144
0.41142851331445734
0.4604952340992046
0.48638547652482067
0.4997294741810279
0.5167540718942203
0.5408969672672587
0.5426690713424169
0.5305729055204497
0.530532218140239
0.5378427905837448
0.5388982781403127
0.5295298505425007
0.5232896393228369
0.5387993267245352
0.5375162982380568
0.5246089165867442
0.5140984241735687
0.5276014094148005
0.5294170572701488
0.517758155381671
0.507119643743289
0.5179985001549932
0.5264702505462029
0.5256433491970437
0.5102977462397034
0.5285476121434436
0.542037495156009
0.5370729663898663
0.5345110019709961
0.5459671079950874
0.5598850591412401
0.5782741840193111
0.5755722201650192
0.5910745679331946
0.6131184091360953
0.6270761203872951
0.6326116000799582
0.6488254090287124
0.6839654469006891
0.6851539229536868
0.6560053171696876
0.6229014909090048
0.5988516182952891
0.5859768670145832
0.5488764837523162
0.5265950304831162
0.5384342537994896
0.5536387034652216
0.5457156509618429
0.5519580868917562
0.5713839393564675
0.5865098222503485
0.6145438234674555
0.6687992147216437
0.8395733955054181
1.0
1.0
1.0
1.0
1.0
1.0
0.8018069000496022
0.4434057606442151
0.4476639168790208
0.47698104464778535
0.48089592019786015
0.4612308862225749
0.46039416507540026
0.46579945210087886
0.44753935256881705
0.4346176407130324
0.4480288732949476
0.4515628049771318
0.4318423443527026
0.4239535905787191
0.4212524535800325
0.42665237936098405
0.4254623136481358
0.412721852012654
0.404779941418803
0.4065986962093744
0.40075963519043134
0.3787982088253644
0.37089419620931874
0.37628458415415916
0.37084022110361414
0.34917568338927013
0.3425128185794012
0.3457795332765821
0.3433132772185655
0.34406832618004746
0.3555852298147101
0.38224743493031577
0.40975221335512446
0.4216728144995148
0.45086554077172003
0.48428750171226004
0.519560609601908
0.5224283450102828
0.5340633866136183
0.555610441953482
0.5673912829458816
0.5673300830270193
0.5566565141909332
0.5519412885904794
0.5626251178656336
0.5596929780283426
0.5415296224180619
0.542029827240889
0.5531298069288386
0.5477695783696287
0.530670471211649
0.5207294072195594
0.533041423171522
0.5293302626352586
0.5141740387187779
0.5091049312028281
0.5175466925341102
0.5298849612567994
0.5218026036241197
0.5134557024652772
0.5330544358053809
0.5480447575510151
0.5430719845972953
0.5380963774764226
0.5637932441815298
0.5979349483599958
0.6109147182976482
0.6459508034062174
0.688973755439709
0.7563998466612807
0.8543176678185743
0.9695083716092977
1.0
1.0
1.0
1.0
1.0
1.0
1.0
1.0
1.0
1.0
1.0
0.5732456406916088
0.387746184341931
0.4239289031871568
0.4255292581627218
0.38473725452224367
0.36105900938852376
0.3545328278615651
0.3517948527542546
0.33987489332578785
0.313764580954533
0.3065311290482855
0.3154479393011386
0.29150896338835386
0.26276252423359236
0.24753867656417064
0.24304254412105158
0.23444374226914796
0.19681390884724692
0.18688038386152592
0.18518260684656038
0.17310344057726335
0.15076493355758958
0.13522727043208027
0.15026436291142237
0.15951819042332321
0.16111069628489338
0.18139337016543028
0.2235958488824422
0.2726880112903632
0.3031016086897633
0.3212053460227507
0.37172543840729233
0.4212128389145692
0.441368114223972
0.449212590802967
0.4677200588945645
0.4926690108340265
0.49885441425249094
0.48994145877219764
0.49230615719820403
0.501244842624078
0.5071199976989599
0.49822074905434655
0.4913314626482922
0.497989092989006
0.49919589489181204
0.4874524741805784
0.4716047100707512
0.481665887002327
0.49632922295743276
0.4891875815717583
0.48327923699885184
0.49051177948464425
0.5108727517213796
0.5078135954741223
0.5068410921832542
0.5154010470819426
0.5290589475455828
0.5288016966543297
0.5235887955285404
0.5292101900502922
0.5405292890241775
0.5320466466697142
0.5251285548702508
0.5257922678834167
0.5351778382424153
0.5401702678783985
0.5288147512020964
0.5279535123535648
0.5442196019170511
0.5464991190202475
0.5420614795102525
0.5493864533776156
0.5714224470786243
0.5993788222860545
0.6005485317110852
0.6086969964657652
0.6487847113139555
0.6796371864050867
0.6674528196441417
0.6445413018458425
0.6325436138493402
0.6071733192170492
0.5737433417685345
0.5379874868672505
0.5210209695108834
0.5397001247212698
0.5335654830150407
0.5280956643142007
0.5302628395463298
0.5571990743297329
0.5683610271162947
0.5751563133273656
0.6239500177802163
0.8007757491476644
1.0
1.0
1.0
1.0
1.0
0.6381094136296537
0.3861084200141989
0.4561515878069387
0.49020904999007486
0.4807079621725001
0.4629628534311559
0.4603097048504276
0.47388758120924235
0.45411765623358236
0.44303700258361456
0.44176035235090066
0.45395094136475417
0.4417166012252712
0.43113776184424857
0.4317961163962691
0.43874855536494495
0.42448180275686215
0.41624391782685055
0.39997390677514444
0.4018875101551017
0.39862588047109304
0.37657031846883376
0.3678246283117213
0.36957458131014864
0.36317131940588493
0.3503016319284452
0.32833727774380045
0.33435764424570424
0.359494783731379
0.36560451273405026
0.3664305528399597
0.38759433447592323
0.42432190281415927
0.44903710239157757
0.46680835383277064
0.49280825259846484
0.5251201778156692
0.5299947259133556
0.5314482923569572
0.5343535418654687
0.5587179018115581
0.5664208151924266
0.5580902143189528
0.5538383392817853
0.5604705749753391
0.5635196378561427
0.5519569572777275
0.5420748644002661
0.5459771320762052
0.5470957193939631
0.5283980342875637
0.5263430225048784
0.5251114713013098
0.5363666104708994
0.5245254821255211
0.5048499445398362
0.5226513921697913
0.5345569953305865
0.5355222282840402
0.5382824325213273
0.5509822740356649
0.567979684644306
0.5699215923831725
0.5646014115826409
0.5827411628135952
0.6077947848102068
0.6182871175009371
0.621181292220965
0.6337963054960254
0.6809693536954851
0.7126060559292362
0.7071593234832264
0.6889495159397849
0.6851807930642474
0.6619551950472617
0.6136131898636396
0.5851409622446301
0.5706607830872976
0.583746539391111
0.5708835010583502
0.5679765255136052
0.5795057694363961
0.5919268686779418
0.5948517807686527
0.5977198801375481
0.6338983833518042
0.7344310029534803
0.9064765514088309
1.0
1.0
1.0
1.0
1.0
1.0
0.5853985685639845
0.4475974082592488
0.5026403019340796
0.5277344746583728
0.5298879833980676
0.5293019728740337
0.5086932293024409
0.49827477338056286
0.49602164052284425
0.5094203723368456
0.49616567227260455
0.47938189193235187
0.4799270532574165
0.48665504939554466
0.48410114404578886
0.4693862553272826
0.47111771630779326
0.481056094952425
0.46275178150485924
0.4427047648298016
0.4378630475210305
0.44382195538314156
0.4296369670306549
0.41146147464172467
0.4117877219311346
0.4086450597316237
0.41088561096273046
0.3942488355638012
0.3952448623703745
0.41501386188708056
0.44177581034683877
0.4518166841917378
0.4783631148029192
0.5261964776920912
0.5621284661743187
0.5724870814865047
0.5719263318142408
0.5894550522234348
0.6006381461694328
0.602438611718153
0.5854601530083411
0.5854475126119761
0.6013276659784552
0.5994100764239484
0.5807282353475424
0.5715153553678969
0.5879042795591077
0.5837206257297122
0.5671905213885593
0.5594952784948621
0.5678020130455138
0.5680062625582656
0.5566680782929772
0.544132567001043
0.553991013472304
0.5644055575983697
0.5582771021325759
0.5573730570477693
0.5631713727092388
0.5642374221494413
0.5619484570392332
0.5542708599357349
0.5686471891909048
0.5878534769071226
0.596193986771446
0.5948272066723838
0.5994835000953429
0.6114037189522172
0.6206938904473723
0.6270234544363315
0.6458174581061819
0.6853070865258629
0.6968338567668095
0.675749257970611
0.6620451726992892
0.6536802670403004
0.6260596187163334
0.5881079941714895
0.5597341472253223
0.5447118388591201
0.5415121146860298
0.5426591514444105
0.5394834532529222
0.5384528414229715
0.5662882343092022
0.5675003930096897
0.5708916634165049
0.6153741878712992
0.7300250246554069
0.9106688172891848
1.0
1.0
1.0
1.0
1.0
0.7827183580749926
0.40938224861236544
0.4400618798757739
0.4636748794717921
0.4647679411116954
0.48135951106664604
0.47558976765365885
0.46954096275381296
0.449308581109109
0.4524646568422268
0.45003752418070303
0.42871065406016295
0.42414874141133446
0.4308640975639554
0.44719568952832695
0.42759493547572297
0.4060285644884778
0.40804860264670495
0.4104374177750003
0.3982699729673401
0.3826546605086968
0.3726945079514149
0.3724849293095539
0.3640956913558539
0.3444464295777062
0.3363725175418644
0.34036860702490046
0.344698055025957
0.3296015443131074
0.3294710239849111
0.3596296009917455
0.37201793193567856
0.3875519995210516
0.4120426715117098
0.4501460435271231
0.48561897721941705
0.5034946005640787
0.5122753442240204
0.5322941608323816
0.5411144468396679
0.5310406572115199
0.5231088983034139
0.5270008529606456
0.5385727873448175
0.5298399633277578
0.505401464256636
0.5097328813686713
0.5150353782929975
0.5141867700386127
0.49851056296298113
0.49325326045536777
0.4938137602038374
0.4986833831887143
0.4877066791673932
0.48351014213354604
0.4911582566168911
0.500772988099744
0.4837121954149481
0.4909749384601129
0.4992274992986407
0.5170738636606265
0.5063478154422885
0.5046567930337581
0.5232847409242265
0.550057812054576
0.5538181329946293
0.5536395506152755
0.5722481351018105
0.6062463574344467
0.6276091782267568
0.6226721584743131
0.6130050017787696
0.6185604948305892
0.5976361660944113
0.5484489599181428
0.5241193389074624
0.5166666840190095
0.49606953183818553
0.4894584301629868
0.4818859737189049
0.5022114397139256
0.5169446118024896
0.5126026349744353
0.523509474201648
0.5562245360121993
0.6232314767190817
0.7693160139679247
1.0
1.0
1.0
1.0
1.0
0.7464424087182809
0.34093723174205504
0.38952515395674664
0.4195277708359139
0.4252729836091008
0.4488062686124722
0.4357650303247647
0.4252293003335919
0.418305499953642
0.4198052517110962
0.4259841453408867
0.4166477079436114
0.40661005563984187
0.4105314841410614
0.4047340774597982
0.39822958498621724
0.38454989120757277
0.39328704509124635
0.3974931058915728
0.38315517663968957
0.37058564090526225
0.36911443991330317
0.3610986824341893
0.35841293663847706
0.3310922044979923
0.32918612988158513
0.3403510798102535
0.33095444891828674
0.3366221663624931
0.3415184316404061
0.36049191156865357
0.38343232920079284
0.39279212592568924
0.43785192557794445
0.4748244197669361
0.5050911331526187
0.5200232188130105
0.5358037820855887
0.5515456405707455
0.561825295763692
0.5563107352512475
0.5524597189420615
0.5580265617906358
0.5633445502037
0.550015131939914
0.5375665422862687
0.5431526002342639
0.5440135902187162
0.5352780805451898
0.5236915813207361
0.5239787928622479
0.5347904690332221
0.5241161973492676
0.515372140698486
0.5118563565474887
0.5329898697414269
0.5383117417911762
0.5267152925048343
0.5294596730242481
0.5478514992666752
0.5481402516767735
0.5351351241825197
0.5391761771774783
0.5659571433701037
0.5803054963565399
0.5806361475112628
0.583289934584733
0.6028940248302055
0.625854188585713
0.6371079096498649
0.6497017100018934
0.6706220424055329
0.6740690235189428
0.6426053659245698
0.5908189053875217
0.5737159065352605
0.5591882823034997
0.545222972143137
0.5334352759084575
0.535850602657422
0.5582743676929999
0.559939561582416
0.5566180614114827
0.5819412858425518
0.6349027843714843
0.7572909888939069
0.9699694129256461
1.0
1.0
1.0
1.0
1.0
0.9347663613797629
0.49724136038863803
0.4405455589381687
0.4453699877223659
0.4614299603989761
0.47731199976452643
0.46205712981299063
0.44029883381942375
0.4386807353737628
0.4488216154355996
0.44553055681513315
0.4287400844276575
0.4170508760889017
0.4289781785129116
0.42740749453401194
0.40840871851913796
0.3947363497065132
0.3999754400077749
0.40779687708990664
0.3862079482571878
0.37420449194008765
0.3687585474349322
0.3706984102626864
0.3562590341965664
0.33525166705589704
0.33153328857189474
0.3271876822323261
0.3257236349805324
0.3160523345563905
0.3297135743703993
0.34780188690319547
0.3664879455924998
0.3785675180479296
0.41557520932057956
0.46231198786438626
0.49492235394681555
0.501875950767922
0.5157356172859326
0.5305939493434426
0.5354392154356903
0.5303200293369748
0.5204792983828226
0.5283449229204169
0.5278311819695352
0.5202860334917013
0.5153131258367738
0.5233337944705341
0.5199245002096365
0.5151368413392315
0.5056986234571687
0.5072737831639192
0.5140074262298762
0.5029856555800889
0.4939942963578378
0.48933556180807447
0.5031004241376721
0.501039486886014
0.4973091814299944
0.502404628916726
0.5203431476829422
0.5216257678015362
0.5110798076600316
0.5240518325370493
0.5337960740333416
0.5513061810559966
0.5611371103334748
0.5657551109285066
0.5876990190143605
0.6018855924922477
0.6182196079816691
0.6340554690722905
0.6523521748428828
0.6570906399746509
0.6352865024716708
0.6028317630686948
0.5737415257352435
0.5757563820735488
0.5462992693667049
0.5127690448795952
0.5112543451166085
0.5268931902027647
0.5238107922126001
0.5162373983319142
0.5287114570776474
0.5592691967160727
0.5997023043143973
0.7055838438812648
0.9259759143023725
1.0
1.0
1.0
1.0
1.0
0.788653502022076
0.43854789536500094
0.43238803482711774
0.45107975256966315
0.4614502172129634
0.46291415727677593
0.4459188734200666
0.4477212129773437
0.4435243874245801
0.43441228731872783
0.4241035610345233
0.4219829167702291
0.4335354602277012
0.42275525110503615
0.40582270960272365
0.39888329529841193
0.40486132914067785
0.3918844080375525
0.37858433654125184
0.3764663289151753
0.3798771512301031
0.3731840267176979
0.34252946701281484
0.33781148444965653
0.34312849432321046
0.33980581474471844
0.32421268316465535
0.31652825435650583
0.334661766085568
0.34326572935068783
0.3452881944932285
0.351108865713901
0.3814968971795361
0.4037324839712365
0.43746329049634036
0.45455085345620205
0.4815290344402037
0.510514258542366
0.5236213173537292
0.5272457993721179
0.5299293385010704
0.5409310891416509
0.5429289184392114
0.5260781297947379
0.5199541787101154
0.5214452927189226
0.5260846099571908
0.5152134337097783
0.5089996548750013
0.5141214098445259
0.5208932443070645
0.5052722300121809
0.4975166570675308
0.49394462466345335
0.5046351546244956
0.49937334489685536
0.48954367389937936
0.4980636858116765
0.5172408137712609
0.5201684116021688
0.5039353427457003
0.5118600760131632
0.5381089567244011
0.539750966331625
0.5336102027734954
0.5504975149544629
0.5671799595201709
0.5767372219364476
0.5815884787329981
0.5937591074026428
0.6357901442242492
0.6695108379620553
0.6650804517558168
0.6445243694729809
0.6356844650395757
0.6096006698347131
0.5727897001202811
0.5326831194448423
0.5194768342265046
0.5225669002783084
0.5212565913454877
0.5212109873478712
0.5218181332712295
0.5439388402916896
0.5451776528368432
0.5485287439474649
0.5870359198308072
0.7110406964829065
0.9475498716727284
1.0
1.0
1.0
1.0
1.0
0.4398617068638672
0.416746994404629
0.47676464277719416
0.47319315363615555
0.4731196451435931
0.4735503454390678
0.4632556287338592
0.4502639878791225
0.44446960326575324
0.4445049532654338
0.448377944331601
0.4385195973642113
0.4309484557085904
0.4407697057512189
0.44985620696866463
0.43072464938051286
0.4193759804618115
0.41826043757337833
0.4270031699778721
0.4089960319298368
0.3943498131982784
0.3756296361924994
0.3864961185406666
0.38948323898316034
0.3536438343558773
0.34927688234451076
0.3592533639092729
0.36291830387831514
0.34501227161098313
0.34090633411266225
0.3535143401553819
0.36695191954258
0.3756596105145128
0.38697897808185094
0.4237995607158176
0.46619326660094185
0.486847035627719
0.5045514535652138
0.5250988173356068
0.5449944643864817
0.5543278172424377
0.5571646286800779
0.5630539191129728
0.5768683818582526
0.5724744231992762
0.5635695067046027
0.5653386628113863
0.5763731895474299
0.5728653409310194
0.5510255077214609
0.5495210710037963
0.5528177493388817
0.557838997412648
0.5461093084890883
0.5388457844079981
0.553178895234177
0.5503448603938936
0.5403762263757239
0.5314969325195078
0.5471601407310211
0.5615856785424194
0.5619819594079385
0.558631957840492
0.5682176878782605
0.5792101363801747
0.5735980040135906
0.5766876989161231
0.5928089641024875
0.6193275669239291
0.621904481803657
0.613107538060242
0.6242343461421372
0.6574833834954814
0.6827996280250067
0.6857998310674949
0.684442338020131
0.6878003657404987
0.6626587783550211
0.6189405939236823
0.6004479636523877
0.5813970737599167
0.5694607430160368
0.5611812432947789
0.5577233628108114
0.5672483952468965
0.5856013019547412
0.5762010367257072
0.5855774770829998
0.6210576309846937
0.7101631447628616
0.8778988523836023
1.0
1.0
1.0
1.0
1.0
1.0
0.6311590610705407
0.4380846836356662
0.46203638754173093
0.49119461531744235
0.5048871186404729
0.49168270785654206
0.4842141450394126
0.47467861608719375
0.47882524796071124
0.47712438180218364
0.4740491413006769
0.45887219305771854
0.4568815373150995
0.4692411447399441
0.45930526275195127
0.4474409792998192
0.4371014207504661
0.4395486242809718
0.4264202180258083
0.4164545666360414
0.4163742044164126
0.41958063496860143
0.4099826340741662
0.3910759336903393
0.38613859311789034
0.3939707866053651
0.37955129477651955
0.36422642203988626
0.3719085292985494
0.3883839976836342
0.39860133015657695
0.40871233899551884
0.4238107580208669
0.45521826560523193
0.48781450316768293
0.5134516315272242
0.5302828143906765
0.5567036472241427
0.5758581328299404
0.5677274220496431
0.5639542704278266
0.5825333525673975
0.5874517158847855
0.5816112698259776
0.563930241574456
0.5645650370115841
0.5787864657216435
0.5760693133033462
0.5502464075239312
0.5491326247155904
0.5510140316386785
0.5634231888385851
0.5417505665794866
0.532385088561167
0.5335053175947225
0.5350769328786773
0.526352241575144
0.51983573245699
0.5388259390393748
0.544528442172827
0.5396497220755823
0.5459210079813642
0.5540833275150525
0.5654839302403255
0.5628346193523928
0.5574420206644455
0.5741813907042335
0.5963705360482443
0.6035498821517045
0.5976865245698612
0.6001242618474252
0.6306567520100603
0.6575545912386314
0.6701330891215475
0.6819394345586904
0.6772156958546043
0.6614728304912748
0.6189045760751255
0.5818428061228659
0.560668707631958
0.5450991752663753
0.5404474759737474
0.5380135534348994
0.5497688714978911
0.5609007144397421
0.5607606875054404
0.5667094171096345
0.6078576815764445
0.738714326901559
0.9579493013930908
1.0
1.0
1.0
1.0
1.0
0.4751789565692537
0.3954598406924464
0.44772120035037666
0.4543507734240778
0.46227369360443016
0.46464564876841774
0.4613115539552265
0.45138698716433695
0.4349978276186482
0.43860482549611374
0.4471890106295199
0.4244169842507987
0.4080461205800153
0.415459478910898
0.4176781175020676
0.40319921996568675
0.3900425852816638
0.3829852025962232
0.3848960669685292
0.3714718866817542
0.3556881327218578
0.34859172417380985
0.3471124468156285
0.3360421925091946
0.3273422586433727
0.32174317247567147
0.3365220349314596
0.3377712661317213
0.33470993169335994
0.34982818180502634
0.38084877948422236
0.4042201294435703
0.4164955628643073
0.4467831734001445
0.495046621070329
0.5161445759245852
0.5208145307015978
0.5176833057356219
0.5296334069554839
0.5256443608865491
0.5176792813073184
0.5080571824494238
0.5173704158119385
0.5248400943104381
0.513756006273326
0.4926605290607305
0.5004163817294899
0.5190798469111231
0.5065027127206706
0.47876934383983183
0.4919714117701065
0.5056117009395725
0.4966704455219251
0.48417373499164285
0.4883720349252262
0.5002568015546456
0.5016405838335002
0.4968033096669669
0.49333899962292016
0.5129752133186776
0.5234898531022658
0.5183031769220872
0.521236368583138
0.5377835059085522
0.5605644313676404
0.5558186930807427
0.5583974555847895
0.574802138843933
0.6019730265466351
0.6234767629934087
0.6210735831715252
0.6324722323317153
0.640758001819335
0.6215375345565681
0.5862105708797439
0.5561113584354955
0.5529833219528784
0.527391333629193
0.5024264404476961
0.5026853469729842
0.5145891463208676
0.5280591989789315
0.5171924051561709
0.5208244663801335
0.5437388358493755
0.5703649715727998
0.6594582216015933
0.9035316279680782
1.0
1.0
1.0
1.0
1.0
0.6074269160832549
0.3454293002624219
0.404687113325367
0.4468235050571142
0.4604697196528392
0.4555134414362113
0.4293393969502368
0.42649688299805505
0.4364940065176176
0.4366611357557103
0.42465053692029453
0.42127515126088166
0.42594511540544805
0.4260890841425633
0.40332255930756106
0.40126911814166705
0.40372947802696596
0.3963370066077318
0.3866327447326535
0.3742899468641365
0.37495018324341167
0.3800100571480435
0.3644653947842548
0.34137889216830136
0.34009350053248844
0.3471337183111739
0.3411330874124371
0.3392716904422132
0.35770960973522514
0.37679828648001373
0.3965733616577261
0.41765297127319273
0.44719876981808754
0.49355062978487796
0.5210285901211438
0.5283233821794515
0.544658280559096
0.567473821052554
0.57119693057071
0.562785182436067
0.5581976020548866
0.5739211765220377
0.5713646064215163
0.5523832211298679
0.554263798945102
0.5555719063567993
0.5595870842171778
0.5490320575496493
0.5397930412918517
0.5402620253826356
0.5344083317293222
0.5289288656391565
0.5321054863934116
0.5365675068767499
0.5455338864339616
0.5430339089624978
0.5334309820172476
0.5439191056027295
0.5616455619787007
0.5632932649855029
0.5590133903185729
0.5575875175060262
0.5808026758820685
0.5904350540749796
0.5916680025428582
0.5977616257394112
0.6192804319192381
0.6435988191626211
0.6576434238967181
0.674009624052377
0.6909722061111407
0.6920887424091648
0.657241681513751
0.6150813468460005
0.6116698951965513
0.6081616052435953
0.5707249457617039
0.5423683118526484
0.5434888660777862
0.5712648077276503
0.570190318666133
0.5512466171994316
0.5554676250357798
0.5754019702502141
0.5954633277005238
0.6085362223086682
0.704909477231439
0.9029658804265495
1.0
1.0
1.0
1.0
1.0
0.48040884134009315
0.3958893098110658
0.49466092078492324
0.5169241536147602
0.48743359779612866
0.4746665022982589
0.468007847683997
0.4889326647459081
0.4775813518539299
0.46109830574033195
0.45632858160161904
0.4645195714866892
0.4574097517799415
0.44074311607427735
0.43093527908544094
0.4483582307665278
0.442626234321577
0.42269657284103246
0.4179322529943497
0.4213657575733249
0.4238733469563652
0.40359651138923136
0.38915786552946807
0.3819022592733161
0.3801687800918715
0.3630164205474119
0.35639797846114146
0.3570757040961877
0.36957674850652456
0.3715460986889099
0.3628799243970491
0.39939620407422527
0.42880294437639976
0.45024978505221097
0.47343981685086706
0.5045986958589513
0.5458680743145966
0.5536193673077544
0.5496299332999086
0.5616781329872815
0.578087604516033
0.5733111996176347
0.5654067646085177
0.5607680420229941
0.5760700067693891
0.5737410337362021
0.5621748479711726
0.5518130944185209
0.5564009743717968
0.5617955360037177
0.5550157876285683
0.541895902419099
0.5375428198894879
0.5451928598633544
0.5448193300724271
0.5286146104430386
0.5362439346868932
0.5444608227594899
0.5357929794660921
0.5362528278995065
0.5441302534389492
0.5619765475826372
0.562782814158795
0.553828615772074
0.5560153536999787
0.5656882089478404
0.5769320927613114
0.5644512336468992
0.5864257696270636
0.5948343915525998
0.6138462850453438
0.6145618898773817
0.6227338443619457
0.6568807858126806
0.6764827132961824
0.676914685313504
0.6738210646496607
0.6631562805719261
0.6430681553820999
0.599932638832393
0.56419002885266
0.5505371535148333
0.5523145172376417
0.5539456628593221
0.5324210300928115
0.5448469129778468
0.5637366947828519
0.5650335932443342
0.5598188403971409
0.576909982235022
0.6338631451258141
0.7491095657436533
0.9539289452187539
1.0
1.0
1.0
1.0
1.0
0.9790309610618145
0.5058203433736554
0.4373655291021584
0.45325486688207733
0.4777594804474793
0.4906509555131822
0.4708742284747097
0.45474189057185094
0.4497071000201405
0.4620050915650843
0.44561155177876177
0.43304037563331904
0.437281989583964
0.441173115051006
0.4323967406757454
0.4166149604303123
0.41688220493009676
0.4262413394422656
0.41435047439397377
0.3959544220817811
0.3909365965256767
0.4009816526560588
0.3913838082914817
0.3763987466274691
0.3589957178754145
0.3648129536084859
0.3647497665000976
0.3358201531526146
0.3284674841591749
0.337719087650245
0.3558145469157163
0.3562976622104608
0.3611280436410753
0.3971177498071536
0.4453962364817725
0.4685417223422926
0.4846322537656502
0.5141317876053997
0.5423692982844694
0.5505125186508282
0.5446254891559054
0.543304267737001
0.5583647521659307
0.5642352073048609
0.5443823193023174
0.5471810910683914
0.551621093629252
0.5534215999296995
0.538920324552293
0.5153734762418434
0.5207466665148615
0.5302651883643396
0.5241154624753933
0.508123810334514
0.5162563493201933
0.5248847319635851
0.521201244012539
0.5087417768074673
0.5189493547143059
0.5396368693567486
0.5366527583066858
0.5314775462933036
0.5402570082783273
0.5503179401080167
0.5418705070210813
0.540678394699712
0.5598149355517211
0.5879639766370168
0.5907430557224898
0.5960329272872191
0.609816223698337
0.6472158545537695
0.6694068057085192
0.6752728789442405
0.6599204670477885
0.6563111792257089
0.6412009509473992
0.6040854843123393
0.5703132180005712
0.5566630564811448
0.5391040222571076
0.5346637970911223
0.5312079626654669
0.5381483976430181
0.5573193850569961
0.5609645371352365
0.5564600407236351
0.5756116917636941
0.6514471845214217
0.8122838654678635
1.0
1.0
1.0
1.0
1.0
1.0
0.5543996278374552
0.43708832965219846
0.4607404900545178
0.4620281784354832
0.489708007074375
0.49057380495227765
0.46582791894932657
0.45756725957658057
0.459865739454583
0.4611572720744105
0.4470929962552913
0.4306508463924982
0.44065024762996047
0.44323940660961936
0.4341165308243192
0.419875466844157
0.4180427087865802
0.4310070545502147
0.4157222303026694
0.3971371869609851
0.3847431626327119
0.38430389301911994
0.3727310824823851
0.35996724333782865
0.34571328580813454
0.35506640828942543
0.34805026883177914
0.3335804328442049
0.3239197237037813
0.34693315848592743
0.3603869266287868
0.35852916456739353
0.3659848455640963
0.4104618274114225
0.4437867388563646
0.47777179030239914
0.4967135454970605
0.5165404838253599
0.5518817630252778
0.5499588130935662
0.5483723294545407
0.5514250839747626
0.5716587524068238
0.5644648256878264
0.5524797504428364
0.542302781031293
0.5497256855377984
0.5537999770953745
0.5430907388316097
0.5308588666825725
0.5434809125221071
0.5381919279356832
0.526970279959602
0.5162649885659973
0.5260541278391774
0.5352853181105064
0.5273097833078639
0.5182254974260544
0.5380436578492103
0.5436705519121023
0.5424971171968977
0.5394179865619668
0.5520409706606
0.5697545293295304
0.5694573989304769
0.5635944425417031
0.5695094104818976
0.6027076608704969
0.6192670003741416
0.6102622160771124
0.6356254968890743
0.6696028042469472
0.6934734034144537
0.6741143757925683
0.6518482170438524
0.6358363516643337
0.620710359484629
0.5790348956805682
0.5342546383356792
0.5373041730996005
0.5522006305234485
0.544149517081298
0.5393169619895216
0.5340315091598832
0.5589969299990617
0.5592196055778428
0.5753819152741141
0.6473748559053932
0.871034371826649
1.0
1.0
1.0
1.0
1.0
1.0
0.45887597838214794
0.3984800529196907
0.45263945067357836
0.4649678558795502
0.4725179810435292
0.46671496787154254
0.46444406278673983
0.4538917284844878
0.4427435715679772
0.4474432881162967
0.449113405560215
0.4441802450547157
0.4358501906835972
0.4337651860814063
0.43416479390631535
0.42307869579714835
0.40618893840101133
0.4104715940752152
0.41060146496130157
0.38982160097599605
0.3693757073232997
0.3564797312432085
0.37554057912540256
0.3635101216286675
0.3332790438867804
0.32433892750587123
0.3349438629342004
0.32972946571309036
0.32516779466532464
0.32026994862630653
0.34511968846049923
0.3699864392108309
0.3770147016287125
0.39161602049976424
0.44617377495691973
0.4827858798826421
0.49003362178472737
0.4964567595872051
0.5223342200604962
0.5351314230534635
0.5345534291576184
0.5296222262604957
0.5255961206875537
0.5372180288627842
0.5355048800757698
0.5126086573872255
0.5188229863017889
0.5285695308782796
0.5237743167504558
0.49991212153588876
0.4927447607634413
0.5059332132976843
0.5090374539453928
0.479973604895361
0.48007451814094715
0.49783200372578246
0.5044092321999843
0.48979863928863887
0.48862262665526685
0.5092811858166184
0.5198077433614101
0.517298497221202
0.5061921398410026
0.5105033600896227
0.5293417905978972
0.5389876066536116
0.5360208040837418
0.5547281698024125
0.5682088649516023
0.5823498310597056
0.5993248928841256
0.6195468606072246
0.6416926214594636
0.6318878602635845
0.607104576316341
0.5747583698329007
0.5580188703331517
0.5388428711847694
0.5002212037037018
0.4802929265280465
0.4965447087478806
0.5021229907517776
0.49923081004381586
0.4929168158937068
0.5024617963011317
0.5177399667000308
0.518237392668446
0.544548315170796
0.6454866495093923
0.862114424051972
1.0
1.0
1.0
1.0
1.0
0.3873033802122189
0.30427360594155445
0.3918408063273821
0.40505094935163044
0.40888459009105144
0.4094373331460086
0.4092933541630181
0.4067073428112854
0.38509613340059284
0.3810800129009196
0.3845699627393588
0.3834751103229278
0.3686626305188877
0.36046818343104475
0.3674768293384309
0.3591380429989147
0.34760877052642714
0.33100803709866444
0.3315278629863747
0.328062867824201
0.3238927349570818
0.3034235735586982
0.2935345423596614
0.300582223811205
0.29063826344697336
0.26411299791147613
0.25965585066859004
0.2771357920042112
0.2831418222636325
0.27264158800030946
0.2800187536488104
0.3115736598868074
0.34356952419679887
0.3566748262736101
0.3840474205816721
0.4140561202059726
0.45533235494413693
0.45725879524089275
0.4609959481005988
0.47568268047170303
0.48625958023575266
0.4840404927846887
0.470713751673231
0.4802045041046596
0.47662547756216345
0.4701198983174043
0.45895386761351087
0.45943423486113133
0.46663626320306906
0.4553648282027156
0.4405299586638983
0.4381899855042808
0.4566532965379871
0.45086364292498426
0.4400167311859812
0.42706448317430323
0.45262289093985064
0.4695177965343637
0.4465257906471486
0.44975008592063864
0.47227228771527746
0.4795131794257014
0.46674639948464475
0.4750211391787783
0.4937219758611067
0.5103695305079181
0.521369065546849
0.5217363691349423
0.5352655333293825
0.5635961495192936
0.5953368958420028
0.6057223089653291
0.6008399191664954
0.5951013048302871
0.5463282742270724
0.504974271420083
0.48831349241948274
0.4777963555469612
0.4872249516805893
0.473591793463772
0.48798917564659644
0.5027451240436602
0.5089766281181928
0.516110654131247
0.5356115806191307
0.618502764783253
0.7796750494043223
1.0
1.0
1.0
1.0
1.0
1.0
0.9100729976697544
0.3774329411440128
0.39062653885427717
0.4275947406395755
0.44947088067590935
0.4570605239297965
0.4364027142617083
0.415191553851082
0.4160431714005899
0.42281315554823806
0.42578714840709087
0.4167506637154156
0.4128870220643496
0.4222274213871735
0.41290158760753515
0.40214878633119466
0.39303401218480005
0.3884807389010062
0.39201814192484913
0.3731915102966086
0.36851001836372255
0.37383547415178275
0.3721028225113524
0.35782680145451246
0.33860655792500804
0.33912114117630027
0.3397478976447358
0.329554199888159
0.3162797208116781
0.31816772704951596
0.34514265895223223
0.3522957694463364
0.3599704349237206
0.3860173949112821
0.4414568795067261
0.4667632861379345
0.4884956316734027
0.5075224472862593
0.5293959880176485
0.5435027783136893
0.539000147337004
0.53747915098358
0.5499694881409615
0.5561134250319101
0.5486551727705138
0.5378733195712397
0.5383919499036498
0.5456920068228122
0.5411378515468158
0.5230190543825385
0.5260602017985462
0.5268040966476938
0.5279206219524469
0.5162306081855844
0.5026440240609102
0.5216129427485403
0.5186280640053853
0.5077552650043846
0.5062064200993533
0.5250587715706102
0.5229964381071068
0.5215184712629296
0.5206650645137854
0.536279457250528
0.5405515367311279
0.5439626002345503
0.5509413023688883
0.5790535669543398
0.5948263201890953
0.5912650167813779
0.5997150150204997
0.6172485128510747
0.654265328519515
0.6669472079255593
0.6597140254691377
0.657084331242736
0.6480404710982031
0.613670422490564
0.5789315202030991
0.5686743728002421
0.5515468694341774
0.526238243853901
0.5180942280038836
0.5240069845085544
0.533679690468934
0.5460978738769436
0.5411915379734091
0.5547785659674087
0.6004658499846887
0.6807097316651483
0.8378606647209657
1.0
1.0
1.0
1.0
1.0
1.0
0.6068540169484323
0.41323553771655197
0.43436331664961614
0.44389196385991914
0.4665511270505112
0.46803847579502034
0.4506490982611398
0.43755289915133255
0.4374710226644579
0.4346744838902398
0.4277432853559778
0.42349610545768224
0.4276775861948117
0.41225912016258076
0.40140649431153363
0.4000408549407619
0.40219937597084493
0.3983994860832686
0.3801219625893419
0.3666541566582123
0.3661541355981035
0.37527565440083166
0.34888743991289284
0.33452997227112014
0.33400592787814504
0.326066585197421
0.3154395736872165
0.2976981606875296
0.28714182428503254
0.30419201492772024
0.3171698147497105
0.30738937799045213
0.3237359543349723
0.34694458525519584
0.3765242878625468
0.39612298108346167
0.4310788111744027
0.4758658062869694
0.5068464907028457
0.5087873988000182
0.5098718260601889
0.5251399289096632
0.534204346892058
0.5290605164581201
0.5218889021477381
0.5305958923444173
0.5372827487500857
0.5239982947057982
0.5152422432629481
0.5169831505297693
0.516321563529621
0.5013685116404694
0.49321624391459995
0.4908782003046287
0.5026290300869054
0.49450800169404846
0.48106082482499535
0.48665632567778416
0.501263667833818
0.5005605174921307
0.4928673340827877
0.49384306633184777
0.5103615559250672
0.5171610905080242
0.5161814694105129
0.5158365606572801
0.5351178706960987
0.5562931254231952
0.5555491706904979
0.5516808696132889
0.5807776438521348
0.6122078839832084
0.63295889569295
0.647584068566801
0.6457651730226681
0.6339741723166791
0.600680454071861
0.5569158715648881
0.5396865076439197
0.5188047552106416
0.49841900616776674
0.4909304902218047
0.5005961963704538
0.5097932539422156
0.5122156554356366
0.5120860767650127
0.5287183868202004
0.5918408641870468
0.7753015494228291
1.0
1.0
1.0
1.0
1.0
0.8054605566348343
0.392395963098668
0.405481576158203
0.4334804122466265
0.4428819428903328
0.44346542363881936
0.4334266729350758
0.42700439269092383
0.4011541220897107
0.4020517800098634
0.4059457258621132
0.4036188698470272
0.3827481433021328
0.386362484795368
0.38828442723711054
0.38092712176889165
0.35498574283558
0.3501994795676825
0.3547308856750694
0.3516859576240957
0.3306236660716017
0.31239957487822967
0.3125053366497459
0.30805877768745676
0.2976146880383121
0.28789323373336406
0.2894458671408663
0.3013516067029409
0.29232015454887417
0.2947454592715372
0.3198671761893534
0.34596957709929493
0.37367253315859034
0.39212762422762654
0.42918449864143327
0.46182946752822024
0.4716876611747594
0.4746036709351554
0.49012147322128374
0.5058423474030588
0.5019628119121008
0.4923014950762473
0.48855421400872895
0.50410033520088
0.5060563957800012
0.48808186736143633
0.473552262544678
0.48725048107074603
0.4901111924763334
0.4673234341328281
0.4573774528398381
0.4672148857043391
0.4708987349763798
0.4629777164278498
0.450371534290515
0.4629081407483917
0.47933555137503137
0.4709290062797482
0.45891546629944335
0.47082246726940447
0.4891116649699187
0.48722508358046407
0.4800634600739431
0.4902467801447079
0.5151957759267349
0.5338685447570566
0.5258771328507739
0.5339914583488611
0.5620409648367185
0.5847037487307549
0.6054925443271134
0.6187053585719978
0.6172601245072593
0.6049612328941874
0.5559455544316098
0.5283129968577784
0.5102363811906282
0.4786674493140926
0.46696621749484246
0.46400800839665945
0.4738714471284662
0.4948269422636725
0.497956569383798
0.49901599870310226
0.5248374951809213
0.592251985418538
0.7436601974277807
1.0
1.0
1.0
1.0
1.0
1.0
0.4252843628302087
0.3578125593258642
0.4106048135442424
0.4307696351916439
0.42026184212755463
0.42687944353871077
0.4086659054108184
0.4021523664707048
0.4032452780939277
0.39897601983909015
0.39034366856199687
0.3784740778087735
0.3813359757062974
0.3861167066618538
0.37578897045007564
0.35821386496705176
0.3630452229622573
0.3674874912481074
0.35664680405370214
0.3390031845213842
0.3288345865259113
0.3410306660733644
0.3292209490206889
0.30615287024444743
0.3016339458002326
0.29625522515180797
0.30640380969028425
0.3036298495453497
0.31238402245898955
0.3396921902512841
0.37860798607962315
0.40904884277440984
0.43409468456109324
0.4663867535782561
0.49407365141855575
0.5010000988104862
0.500555206997385
0.5122781805765422
0.528363467441109
0.5184573984425213
0.5099873487617647
0.5147045220897036
0.5208229736663349
0.5129282129273929
0.49499013952137244
0.48577938595222375
0.49990491100123213
0.5022097931901175
0.48449075649385953
0.48125707964413716
0.5001584862441034
0.4982558386530765
0.48748614194107864
0.4813131470627415
0.49886077310129623
0.4995065466022055
0.4911560334139171
0.489845744991028
0.5057954025710127
0.5184080406770636
0.5099341538184126
0.5121018709323728
0.5256604870709899
0.5528364621785791
0.5580696508278324
0.5516750941549272
0.5716094976831853
0.6043395366846669
0.6167745454953499
0.6227645329892726
0.6303650975472994
0.6417669251388619
0.6301112864705012
0.5829985363337336
0.5369241435428596
0.5387063384661593
0.509345790241294
0.48428941544099413
0.4748770863911108
0.49475530037835824
0.510677152006771
0.5052911353789256
0.5117133493824083
0.535152271538806
0.6105130579008187
0.7628217207774389
1.0
1.0
1.0
1.0
1.0
1.0
0.5082250386547812
0.36331309758828134
0.3828545100929718
0.38429999271276005
0.4172575779844613
0.43000390652931264
0.4060314747459076
0.3916060981648485
0.40489548871211356
0.3994964490858048
0.39145766730439646
0.38150786505321627
0.376720330999316
0.37219032085133563
0.36388947312437797
0.3580109530673464
0.3518976585444139
0.3529309047630674
0.34321052553244913
0.31740521342856576
0.3231702541891276
0.3143512348539134
0.3107859558837959
0.29336509781031334
0.2875292057231505
0.28856041287647194
0.2785286705521802
0.2688029947590393
0.2680379843008883
0.28844244982599887
0.2976874301059328
0.2881873696130217
0.3082759616724113
0.343070316675956
0.37482916943007033
0.3987997701871294
0.41804213913165145
0.4528293928307833
0.47406611729448594
0.46837380773719345
0.466781219334018
0.475143789361361
0.4872621125048912
0.4827013723419923
0.4652915007894848
0.4539162048233778
0.47487059958633016
0.47274596006682756
0.45322474296403775
0.4468776954437995
0.45379307515796413
0.45545498724604583
0.43938411088928964
0.4318365028405788
0.4464467720610311
0.44016254275239125
0.4334975319232564
0.42483234149708043
0.43473761057712057
0.4403598832856391
0.4299875989451795
0.4325545819058723
0.4489713050234775
0.4639174406714132
0.4576529394846262
0.45891067345416275
0.4758780628665524
0.4950606795906494
0.4935339697996305
0.4994591572767102
0.5011665832233215
0.5204610997192668
0.5503203168154567
0.5649802526258637
0.5839791155119968
0.5886481858923696
0.5703433114278453
0.5413450948837568
0.5050459613264301
0.4954749769786269
0.47212861058187594
0.43118794971882063
0.4272811048537526
0.44038821075276663
0.44606193599312016
0.4438912855031547
0.43976606634151877
0.45794701750579253
0.4829530773527112
0.5072356709019473
0.6000542508558782
0.8367583918238364
1.0
1.0
1.0
1.0
1.0
0.8510645225623301
0.2753595324991328
0.28499804699235853
0.34070889005864613
0.3542011893144386
0.36561833473279226
0.3556686726985154
0.3545086434015607
0.3562275866560389
0.33914668271851783
0.3272188607749995
0.3310208639733565
0.32898894872405016
0.31773578710560324
0.31260736988026006
0.309023865924187
0.31045103580351013
0.28989397692626107
0.27443386046657003
0.2782141374619697
0.2809215569298441
0.27107757395625454
0.2509972611774318
0.2445105987204536
0.247028941692582
0.22865109522842597
0.22501792371303048
0.22748698665533765
0.23771403701819033
0.23717412142313316
0.2471324031192809
0.26442972785028973
0.2987680570134498
0.3347832980503843
0.3550512965954501
0.38479188980505574
0.4155765231447356
0.4310006951327779
0.43134782063342714
0.4326712154149691
0.4391379007054007
0.44554070889299496
0.4328662120311032
0.42187700477358864
0.4216622029554998
0.42835859025141343
0.42165432680931464
0.41183352555421127
0.4168265987307763
0.42800757039556225
0.409128372087417
0.39378100430144736
0.40784708199339104
0.4235119442621763
0.4183144209581102
0.40924878982834934
0.40812279107275956
0.4268932705970828
0.42780376836576595
0.42011222325319714
0.42616602263356806
0.44335669900639163
0.45322888944142503
0.4576690858270668
0.46305670834782936
0.4872053360122993
0.5111424183802358
0.5093665631823587
0.5238327712532194
0.5693767321544132
0.5924528978622929
0.5832681105277288
0.5658086321166814
0.5520099643851056
0.534023806947215
0.5052054167488151
0.47255857874671026
0.4566914327371621
0.47014544480662773
0.47760038101974134
0.4641765421573111
0.47218560022607575
0.49300512728037094
0.5052026598597423
0.5170886941632504
0.5509239534666591
0.6886110068566891
0.9260801573967722
1.0
1.0
1.0
1.0
1.0
0.47985145463450357
0.3189228318190188
0.41416092200918564
0.44389143002289944
0.4161736799736051
0.411285226455837
0.41625271418736237
0.4125807099150139
0.3992390211523313
0.4007154429115135
0.4050596336900467
0.40791636876452275
0.390045881422693
0.38419839491607605
0.39358367795530036
0.3839214719947203
0.37505293411087137
0.3639822639616364
0.36235136217291763
0.363899143088601
0.3582195196326706
0.3410621863088834
0.33953634886058803
0.33555868512199066
0.311250353487244
0.2992757348161323
0.30683530974928264
0.314883257431393
0.31214602806110625
0.3124307001262873
0.3302464720522374
0.35655272339876587
0.3833080424595437
0.3940372895839278
0.4325559115400939
0.4700125176760895
0.490043959156129
0.486046747366217
0.4955417024145669
0.5123205139636243
0.5142034912721869
0.501918369900727
0.5021553953019654
0.5047992085341522
0.5065646986299858
0.4859186047842196
0.4815957947126752
0.4806195266087975
0.49131141059573313
0.4846012831626906
0.47177182727916883
0.4666677645134447
0.4749596355750074
0.4673199043241142
0.4525426117661514
0.4701896014023788
0.4774880082386906
0.47607730630822526
0.47449570127750273
0.4860987889643301
0.49983658529389663
0.5050602414090478
0.49999489116070456
0.5099736250611896
0.5385984025304805
0.540462349111005
0.5417739331212614
0.5684087573668839
0.6017821738804822
0.6200354499755306
0.618750338406217
0.5957081417811251
0.5788646456277439
0.5577135344534071
0.5192883411329646
0.48531396003208493
0.47535919591699394
0.49062016484906695
0.4898967176620756
0.4868332289765752
0.49362188665834533
0.5078821047654453
0.5361223389398806
0.582348084666551
0.7412042976830572
1.0
1.0
1.0
1.0
1.0
1.0
0.5109354874919168
0.37409384139433177
0.42599162991309214
0.4126248656497881
0.42367524618758806
0.42369958967364124
0.41439610090494555
0.41374917615504214
0.4047913536648277
0.392588969756562
0.39742279619085574
0.40058003415886967
0.37742863343156513
0.37041857188044014
0.3702655909758882
0.3819931365172337
0.3711814573937834
0.3546060739581587
0.3485195254523429
0.3535112783890055
0.34912278787175743
0.32469597928231203
0.3152488619664561
0.315543923019509
0.3146934544287527
0.294851205769773
0.2828455761218482
0.286975420141255
0.29747727076143554
0.294241127175009
0.29375751323628335
0.31158119368964476
0.34463402982003133
0.3626062425651542
0.384465816162865
0.42729933505029727
0.4691017061670286
0.47505350511431593
0.4795873297327981
0.48522342992278045
0.4971176512667957
0.4934476793593895
0.4866250706971667
0.4824943399209666
0.4938370420734547
0.49282234991335877
0.48292089560117357
0.4688328993429892
0.4739010442699625
0.4782646171683962
0.4534306984158655
0.4511365435371035
0.46293188608926206
0.47176734170923645
0.45808046348136616
0.4465599571310165
0.45827287600862576
0.4689682321325336
0.4695226072517773
0.4633042884565065
0.4687253334279422
0.4870463142063384
0.4989103995206916
0.5044319678727771
0.5163879584904293
0.536527331660751
0.545198394323702
0.5537557022795359
0.5723460328525924
0.6087043833416435
0.619126814494909
0.6077687647179124
0.5837127243443321
0.5686983034296225
0.5319136838264256
0.5090374186825298
0.48623578150055985
0.47604807673391614
0.4706809978861545
0.46959001585835375
0.4729585083777937
0.4851296921517694
0.5010865414405324
0.49610250471581063
0.5151820742398637
0.572809194204152
0.7579207004052917
1.0
1.0
1.0
1.0
1.0
0.9118442789550087
0.43210776572781295
0.3875798996085174
0.41615569364608546
0.4172720669758633
0.4317722256528401
0.4248461258437942
0.42163929651551707
0.40791257908238165
0.40217699239587984
0.41291936796049555
0.4133048509077546
0.40381230127113116
0.38789727316646705
0.3923597549456098
0.4018689069137693
0.3859214827245932
0.3614454030462261
0.36475581768688425
0.3730890120284352
0.3584117287503143
0.3441815919648531
0.3332058267710963
0.3385941638227794
0.3268566535368973
0.3072689004329676
0.30509810929110565
0.30593359874284576
0.3013610349296071
0.29591733695602296
0.2944005623772098
0.3106905255529136
0.32865254144616174
0.3397330670627391
0.36139999822732594
0.39350680043193037
0.42831041211174925
0.4426079185864955
0.45890839163360997
0.4822864670589941
0.4976548197471238
0.498292721063741
0.4925589565472258
0.5013745512137738
0.5118558970436997
0.5037962836279926
0.4885507028741928
0.4855582265639969
0.4970968636981901
0.4907808176697458
0.47614553938409243
0.47184064678325466
0.4811143261930698
0.4757572745512652
0.460716082554825
0.4615110956837022
0.4642054362276105
0.4792051603793766
0.4651827656603988
0.47048390725643346
0.4830306990014018
0.492421903868452
0.49424725408320513
0.4930202361466908
0.510257420902042
0.5360506288711105
0.5447400175687482
0.5504331692768993
0.5719926672314448
0.6068602031977007
0.6226157915884631
0.6265700609181939
0.6153973134714483
0.5994733465797759
0.5672123464237597
0.5343718520330922
0.49789325292310405
0.5007326379324181
0.5006782067451058
0.49476491593898525
0.49696534615112337
0.5098375351588401
0.5216311589436464
0.524572336924411
0.5378867191306973
0.5785143553658282
0.7008116596503242
0.8998369617423443
1.0
1.0
1.0
1.0
1.0
0.4801198730724735
0.3810792820464187
0.43001218879281905
0.4494445566611838
0.4478474676397791
0.44512533390661935
0.42836808719418623
0.4212453035505327
0.42201989615143926
0.43101197143904085
0.4230016103653814
0.40498206132873127
0.3960097411543265
0.41061923035865017
0.41581571326480626
0.39712275687614496
0.3858268357831293
0.3929565354548698
0.4002012441758744
0.3808151762095416
0.3632607633869069
0.36151383102392237
0.37230156108214574
0.3540626085292939
0.32706734788713016
0.3203420791595451
0.328659446226926
0.3210455220246826
0.3180561089379318
0.33259174469214137
0.3486714690408528
0.3678006916739073
0.3835323191884211
0.4139473979173597
0.45192412445398294
0.4789251286429715
0.48894229833732084
0.502596391314199
0.5196190985991076
0.5321941937067601
0.5328553613902245
0.5198443222575337
0.5329202975012043
0.5429692943537842
0.5362801351104579
0.5246793358832041
0.5239929428316799
0.5295326326821843
0.5280291874797898
0.5107585224302003
0.5124729506052478
0.5114240147907573
0.5055719891014165
0.4964470640681181
0.4951296535682622
0.5040113041283625
0.5036546727393263
0.49985462311792916
0.49760910921516865
0.5109800126276826
0.5205005691129032
0.5151812074203421
0.5208318557593619
0.5334633835700883
0.5365463566891517
0.5390102356021982
0.5481358366588612
0.5707397256270884
0.5901394396022422
0.5986910798687285
0.6128810447838708
0.6399120799754505
0.6524123631347312
0.6450760244910718
0.6188417602669253
0.5956404036966158
0.5762391527663429
0.5381485813154414
0.5023031420013504
0.4977700441152003
0.5142094140346924
0.5227259980655472
0.5097520441359331
0.5098030770783503
0.5333566586616448
0.5476264719601147
0.5621165740210551
0.6342436560786795
0.8398432240602378
1.0
1.0
1.0
1.0
1.0
0.845580917128179
0.3884395235688234
0.39108520206840314
0.43003758087154476
0.42630510864342047
0.4420405420965462
0.4334231474091239
0.4341497580710218
0.4257310126651138
0.41670091137605
0.4019417014356212
0.41814901433702456
0.41708043619197815
0.40093557900195353
0.39301071214250455
0.3967087264185974
0.3980316453454333
0.3835075893589591
0.3722405388615805
0.38160814010418886
0.3800896445095027
0.3601659296854584
0.34448688910350694
0.3478677358426161
0.34558050643390675
0.33422981071027064
0.3167074169314269
0.3180618148973622
0.3280501698618961
0.3179482799411486
0.31087507605468756
0.3248144549463792
0.3413835847065788
0.34588973847707105
0.3551981246290102
0.3842337057115347
0.4307726148199792
0.4667451454177998
0.4788611475266486
0.48446067748972216
0.5002090613874463
0.503994323113629
0.49686668799198486
0.4989659219464051
0.5060217706652336
0.5127494531813491
0.5038637270335443
0.4813742920015436
0.48785454459532696
0.5038124327168061
0.4862169159593354
0.4765412129370086
0.47882767262709713
0.48504905941558585
0.48051675717774406
0.47123088406023
0.46785837980297307
0.47055307396520235
0.4674525525718476
0.46332612173882426
0.4627532245404655
0.4741939260423297
0.4771021689216187
0.4759308997789013
0.4781513932705265
0.4886691440588623
0.501277413158624
0.4958474781733576
0.5006834887375988
0.5264577363206705
0.5385252911055256
0.5394963110690412
0.5442879602286042
0.5719112985161946
0.6006151158995764
0.6091038567868592
0.5928333271137433
0.5811353897115554
0.5560632998506552
0.5237616192248709
0.4997849569714649
0.4783221125069714
0.47591122022836785
0.47102733012243253
0.46936752143622407
0.4754770195298397
0.49453673985611524
0.5029992169860525
0.5194442392263812
0.6022522013352855
0.817070415079035
1.0
1.0
1.0
1.0
1.0
0.5328607828705401
0.2809395238556652
0.36823937893108816
0.4303201322574933
0.42263421209655616
0.39780245587953594
0.3951917939004256
0.3997870274360106
0.3944673821141233
0.36994982480380567
0.37855385164468525
0.3961759319173267
0.3797368365432853
0.3560462411126203
0.35595886885041533
0.36710094856611447
0.36622124194410854
0.3361899842119138
0.33470801819506146
0.34182663192466406
0.3383421155404239
0.3169367907967152
0.2979884503775812
0.3033414897997979
0.29845148926669685
0.2853306671583923
0.28392174462121467
0.29364263395433043
0.3053928575152891
0.3129600239208542
0.31878125959329395
0.3404720117903066
0.3831233253188791
0.4035384625325296
0.4184769515635497
0.44065358007410255
0.47336047016564853
0.48423987607662455
0.4798557884410852
0.48654951307985445
0.502239989341701
0.5032175234514138
0.48715384226769387
0.48356282837088926
0.49448062024901496
0.49876986141826973
0.48119273040366944
0.470311497823091
0.48045531301159583
0.48106588196253364
0.47078310802693996
0.4591967780603759
0.4677393543985547
0.47521931499107295
0.4748320088913448
0.46840339098505773
0.46179675595887354
0.4826578934573938
0.48004106840019445
0.4796270164152043
0.49006739877990046
0.49772348621773677
0.49748335290257034
0.4993568885322812
0.49716564198867347
0.5163085799133668
0.5237481912964488
0.5302241895652856
0.5376960151212968
0.5657705885083826
0.5771704536423163
0.5872432662671953
0.6082665820943578
0.6255985671779115
0.6349682983498102
0.6130822642223395
0.594517452025013
0.5672248269149569
0.5554182509228125
0.5296524137900277
0.5009553911597662
0.5156554817288985
0.5297688721533617
0.5298125643464631
0.524725135224314
0.5388830033801554
0.5575631437152131
0.5751805508787721
0.618215917205644
0.7785981913572158
1.0
1.0
1.0
1.0
1.0
0.43200423041278535
0.37380891632491103
0.46096427746646873
0.49361311302849903
0.492566847683078
0.47607885942368594
0.4577858447495703
0.4626750772866822
0.4653288290336043
0.4528826066669037
0.44099523068065444
0.44300919536739797
0.45360381599793065
0.44045645786999277
0.42782323599416083
0.434784711174414
0.42928267816510673
0.4170771005157411
0.40191514356578584
0.3928388457584152
0.3972343509657601
0.3955622003243987
0.3719448099857249
0.36111065301877077
0.3643700516176077
0.3639162324862843
0.3504515656322284
0.358894908832421
0.37677528218254114
0.3955384372928501
0.41264613712696024
0.4328640607428052
0.4757025575079217
0.5146665139554256
0.5308536181735324
0.537570093799552
0.5469593099653207
0.5700885129030764
0.5608919645615003
0.5537709841916219
0.5483769467564827
0.5623546474191188
0.5630894201133156
0.545812848961873
0.5522457672708161
0.56149136414835
0.5540594243474708
0.5426303551502902
0.5357859023959622
0.5430561369020357
0.5456236103173306
0.5352946128401557
0.5259089557535572
0.5234568159746862
0.5388139616712267
0.5416689454523251
0.5331736619308416
0.5481292058291893
0.5618682671042077
0.5583259461267396
0.5488981119500529
0.5557850689604499
0.5656214167878436
0.5694678060320528
0.558419979814165
0.5681690013468352
0.5885968856684726
0.6025345833441061
0.5951961491153196
0.6055903576332464
0.6349669006955019
0.6658249854594012
0.6733529795488382
0.6621774592504174
0.6511382727708572
0.6391163452769962
0.5966561384402971
0.5736710679323374
0.5501524467479803
0.5466090497019173
0.5422331669795735
0.5415614114044198
0.5456578373100768
0.5565403589277189
0.5597084969444411
0.5629950113673259
0.5770735511297597
0.6187627370906809
0.6967056676032389
0.8630981975194751
1.0
1.0
1.0
1.0
1.0
0.7764602610901978
0.3913675974213061
0.43822850923543877
0.4838267374511377
0.49470952147644204
0.49116459525879436
0.46174304811564115
0.45520505169162834
0.46480609281402796
0.4704914029926502
0.4496672260532407
0.44028804166159763
0.44564050461630866
0.45594576565921613
0.4415645070891442
0.42076459174170866
0.4268580270716528
0.4344574151211601
0.425228522549902
0.4015647166553352
0.394489397141544
0.40780506112184217
0.3987153106600728
0.3792880006873408
0.37378532863842
0.37375145828015244
0.36849064606306337
0.3504112150417761
0.3465871724289228
0.34865823851084105
0.36338165213867196
0.36505424762746896
0.37407094354186565
0.4129169164010764
0.44059275531362746
0.45949668446535313
0.4850801199179928
0.5078031816304581
0.534742407478371
0.5341750161995534
0.5388729977948999
0.5432132440875443
0.555502540158206
0.5529266919254539
0.5406909614038813
0.5477679499393561
0.5615659137375665
0.5551112642304689
0.5363617290553642
0.5376261145173682
0.5470825676943117
0.5422352122812866
0.5312436050025985
0.5196271006644166
0.5322947517382245
0.5297558045804844
0.5147924610049202
0.49712853957740677
0.5064556995346168
0.5282918296892211
0.5233397854199182
0.5128904156690023
0.5283074744803307
0.540945848610872
0.541066861359081
0.5287199517339274
0.5412690705289417
0.5570613411487348
0.5573323570512947
0.5488118371018512
0.5593618371081212
0.5747937623119852
0.5834182282452913
0.5774097980901163
0.5829224646748323
0.6073122940859623
0.6240401751356428
0.6361835520361658
0.6518038209218269
0.6729183678816432
0.6655524198283433
0.6396646537949316
0.600871675963013
0.5863845164005392
0.5767295705227222
0.5374707032339524
0.5198268573781542
0.5266830220200782
0.5466133342775159
0.5387376525403573
0.531400915236364
0.5454542880448098
0.5621717963132433
0.5770820961082548
0.6105651502090739
0.750443698844245
1.0
1.0
1.0
1.0
1.0
1.0
0.6299415151004497
0.39765816926084596
0.44878323337638937
0.4830493097571442
0.4859400376259492
0.46340742202599056
0.4596148112072894
0.46194904502073636
0.46182306197577505
0.44830529764228083
0.444860993708717
0.45570612742719224
0.44555915962335585
0.43262129784224096
0.4292769668411255
0.43520636758667414
0.4300076758672019
0.40954751189304195
0.40956952409278735
0.41095173380193184
0.40179326327042847
0.37628285345223744
0.36506728495750057
0.37182392052813523
0.3601301116278701
0.34640986362473025
0.34168958140692685
0.342125034115747
0.3570410753404426
0.3581709128302869
0.3738863968161117
0.4004055662888968
0.4379716323729498
0.46668391948394666
0.48629662392320006
0.5106030476668948
0.5248243850255678
0.5327346734415628
0.5295818816881332
0.5416426797396715
0.5577334028934156
0.55327662308202
0.5425337614214095
0.5469344107009115
0.5581285329493406
0.5456986873370101
0.52737726147353
0.521270058784743
0.5340460872542281
0.532368938667591
0.5229183056051979
0.5113560494668792
0.5198355566578505
0.5257001946257129
0.5116971540657023
0.5033666744611883
0.519214502280048
0.5373298943224778
0.5318274664171182
0.5229905893093326
0.5362343724270197
0.5509966144304219
0.5436959270245442
0.5265733095809377
0.542225516328538
0.5613953680992408
0.5709394445201704
0.5656437533489053
0.5843390086776837
0.6032569739757948
0.6122961353490043
0.6109854961184124
0.6348381496372962
0.6688409942982539
0.6862459876156821
0.6683335197648459
0.651382861273371
0.6348798154421103
0.6071665997170634
0.5785526702553795
0.5444686097035791
0.5279175748555687
0.5443454297777077
0.5430680718979461
0.5265966163300524
0.5413343122201144
0.56557277404706
0.5611091558527466
0.5791255353910485
0.6635798786948572
0.8559497504802278
1.0
1.0
1.0
1.0
1.0
0.9360774509410035
0.46928190375669054
0.439646565706039
0.47705995047163663
0.47686091501644334
0.48802799271448283
0.493552195354368
0.48042848765998764
0.46559480453361585
0.46140358039036855
0.4642800406353452
0.4654206988489936
0.4509858763382327
0.43392909315214095
0.4397312875698919
0.44970157129829225
0.4410187063627348
0.4210779447535097
0.4265488725627657
0.4251444441181905
0.4090858087633912
0.3970795975723592
0.3928711338171472
0.3959849119505636
0.3865701813042118
0.363513702152899
0.35183140253303985
0.3633412388729735
0.36476117435716
0.3560105249084881
0.3623076720762682
0.3949173332444401
0.41967453928741805
0.44085793678797164
0.466308182093578
0.5144641688313906
0.5436446111907918
0.5535869726307212
0.5541140682126562
0.5724706758050819
0.5750835027115986
0.5711605694905139
0.5583341510833895
0.5554198642397365
0.5769980632905003
0.5710224210494347
0.5463119226912027
0.5448623602912132
0.5643198132271994
0.5583067658597997
0.5378136584279773
0.5330923406830637
0.5426901081338962
0.5453230135832474
0.5350578006591389
0.5328598485940745
0.5558203910188918
0.5638199270522766
0.5545518301757186
0.5521338368752202
0.5698974480015992
0.5834962520335855
0.5792373454865933
0.5771953869131683
0.6051833616196217
0.6247872420893548
0.629389656671321
0.6232386667751957
0.6383767501372086
0.6774706625240617
0.6944465652318641
0.6962831977503919
0.6848561685706204
0.6921450896748239
0.6600450898152848
0.6242115842513594
0.6043001197384216
0.6010858096427432
0.5782133416667823
0.5618632312243041
0.5542086348816431
0.5712662217185259
0.5847480289012227
0.5777680458574952
0.571315005605137
0.5936068670363946
0.6470332030549631
0.7651186129054398
1.0
1.0
1.0
1.0
1.0
1.0
0.6197692231157774
0.41276813617597724
0.4626662393165981
0.5014192327129862
0.5222073083357303
0.5108747853229657
0.4832356043804659
0.48446102299228144
0.4912373220847311
0.49096747406316615
0.47501773396018976
0.4713054275952057
0.475028182044425
0.47754680886053846
0.4604747453924588
0.4431682371668245
0.4426586189896674
0.4439314703487841
0.43094272112511317
0.4167339682532364
0.41546233362627366
0.4193889305692601
0.40933018690869105
0.38855190587103083
0.37865024827568483
0.37484666378089027
0.371743825304041
0.3709299989052379
0.36922184366399896
0.3902542394771172
0.39799457438858027
0.41882447015844787
0.4319422179384129
0.4710775542168951
0.5021101639974872
0.5124027810916557
0.5325891608879672
0.5508473457848595
0.5711433848708725
0.5683480478568823
0.560334225883908
0.5671351954303331
0.5793411355878361
0.5689328471779028
0.5455038882228955
0.545670435614211
0.5593480520911934
0.5526874474402673
0.5336416346727162
0.5306732362626507
0.5419166135584932
0.5434489739726767
0.5248299003876743
0.5306937812293664
0.5365171658735252
0.5346075577122344
0.5299833273910106
0.5282761881107813
0.5432114979107874
0.5499168168337979
0.5468435422532725
0.5414899556757946
0.5554386201128038
0.5655080153042717
0.5632797566920865
0.5586830405719014
0.5777749894114254
0.5952893896078428
0.6016000374277267
0.5987914129768772
0.6152225295654776
0.6409122548484794
0.6658860167937698
0.6658945526714989
0.6638017838814616
0.6615693009231366
0.6356061975989966
0.5878053423139431
0.5729927285563654
0.5632154256114877
0.5440769695789112
0.5281635948883785
0.5201219406552345
0.5358775321591056
0.5524731568594698
0.5433737323580304
0.536932968945061
0.5525844774319223
0.5781665570223504
0.6335054039943075
0.7838599076948108
1.0
1.0
1.0
1.0
1.0
0.7812231515563856
0.3597757571500039
0.40289751208049107
0.44419137561869554
0.4669234644811452
0.47670693041780676
0.4563551723948671
0.45037319213078764
0.44711757653786516
0.4576764805842455
0.44657476903800586
0.4364097903989978
0.4385215969992676
0.4385314243226687
0.4303418004162549
0.42375806057011944
0.4241849497945093
0.4316737188973754
0.41014033378591613
0.3934848148761184
0.40035604158220395
0.4021527998262789
0.37846398327980835
0.36272418124897954
0.35992706394130425
0.35275795882335315
0.3480980292713647
0.3339889477599271
0.3355376056313649
0.3532453215233008
0.3529885959957613
0.3570711078947951
0.3842737837894835
0.4242495728882452
0.45299850407605663
0.4756747447393018
0.5061645704714086
0.5289590044779078
0.5383110988500557
0.5304455624729922
0.5332566807679775
0.5447562409289038
0.5431582011082099
0.5343546751489938
0.5301406218697554
0.5367720285237314
0.5416543592815753
0.5295220607188191
0.5156527752018208
0.5096313194924736
0.5267483220839385
0.5235764971108327
0.5094909673106951
0.5125946609821617
0.5216153757862497
0.5275049536476004
0.512617144087513
0.5176562380141276
0.5424600944451778
0.5454362790796727
0.5462496951097378
0.543099042115113
0.5589069150859354
0.5666256821619152
0.5601491991458672
0.5569785783761826
0.5760707578264315
0.5969679458558772
0.604156834465696
0.604470809436262
0.6283949669351566
0.6557362542992848
0.6606292240097967
0.6659005276686883
0.6755906460345811
0.6659535776568574
0.6364869293607818
0.6043463644224991
0.587976368537751
0.5768177107375939
0.5576797885015697
0.5535268349265909
0.5561219273239981
0.5693203738180374
0.5796952908983182
0.5732870744658829
0.576379330850018
0.6046093932751221
0.6474633278083647
0.735795853335943
0.9080327210423264
1.0
1.0
1.0
1.0
1.0
0.7418131162119883
0.4027644097272717
0.4716145130456463
0.5235371170633855
0.521337393022973
0.5129125422952716
0.4967127189542929
0.4907755373907515
0.4921959140572406
0.49733644723370884
0.4797560945849275
0.4738826128455528
0.47738700076597346
0.47631996846501645
0.46092758633221254
0.4572398814315659
0.4502258884719036
0.44785881370922764
0.4354022208302066
0.42281026414018763
0.426758458897529
0.4293655362468466
0.40748087374420516
0.39840168819544386
0.3955076994571063
0.3984329064841058
0.3878525518226318
0.37161225370382045
0.38250817194258496
0.39899587751501275
0.412061864394243
0.4253219524065929
0.4537252481153785
0.49890932385480974
0.5335781343688485
0.5571476755349773
0.5595370642687327
0.5896588998318102
0.5965602387498696
0.5852840357486024
0.5917464945877092
0.5970370197234869
0.5990570652635067
0.5898028525480932
0.5875535383912114
0.5832089047343809
0.5947396613667296
0.5847965220897402
0.5669715348840683
0.5651698065136637
0.5613351876060342
0.566765143571706
0.5534504013567403
0.5571706669451411
0.5719710720608514
0.5666632134386428
0.5630800995327058
0.5656933238561197
0.5790334020999981
0.5806259428905495
0.571560976484843
0.5645963366160023
0.5807681778169717
0.5919284559420148
0.5800352865059935
0.5779698144537089
0.5922327616159295
0.6190573990094962
0.6195873096865674
0.6172078976400919
0.6314080602941902
0.6536028101042459
0.6609737151938979
0.6715324932281277
0.6952391517952414
0.7189049547273745
0.6993776411450124
0.6572760380198817
0.62609313558292
0.6182475451364737
0.5895809803640957
0.5611349701508942
0.5596242681510641
0.5793464472738151
0.5781523402737151
0.5739478676407139
0.5707280873205726
0.596519195295181
0.6173798450871141
0.6581479257739483
0.771968090446419
0.9778162574620073
1.0
1.0
1.0
1.0
1.0
0.9997293842540955
0.5378207522726173
0.486760873636627
0.5027946176747023
0.5004928375937828
0.5038770186730861
0.49787924837688574
0.5038756119037655
0.49316245179116247
0.4782027409564134
0.4695511154209668
0.4796633573350947
0.47603593966085567
0.4578639801571514
0.45711797878774785
0.4610957338623705
0.46277570123534606
0.44217967441653344
0.4235812208754643
0.4239998718206436
0.43169712866488946
0.4208030434186051
0.3992825505161184
0.39739625984895965
0.39692822771525416
0.38085487054876016
0.360494740461195
0.3657249979201006
0.3751315485007264
0.3700716601338564
0.35805866582902607
0.3732509381593174
0.3969741043345273
0.4239775401390686
0.44497572478379244
0.470649342022443
0.516339516911102
0.5418922486919361
0.5414078917033935
0.5445664070894065
0.562972465180585
0.5708722549826953
0.5627645357919909
0.5559198919072607
0.5682666429716033
0.5723478695701217
0.5576964131437545
0.5447666864114902
0.5477842588820585
0.5541643847213322
0.5483906458346308
0.5296133481558322
0.5348564254389128
0.537268069720237
0.5358564079376849
0.5234643504142681
0.5216761960756588
0.5369249211099296
0.5350356533234287
0.5315311191394936
0.5394251024426794
0.5600926715250889
0.5525275487852926
0.5482277462679594
0.5530575787904262
0.5742753589645128
0.5900496644127042
0.5885317804787071
0.5929556304019885
0.6138596365517027
0.640106461111499
0.6528889046143123
0.6652201167865829
0.6737035278449527
0.6722331652303151
0.654341366612854
0.6108166066492415
0.5934980454969903
0.5903583640024839
0.5609241687924482
0.5303166244317
0.536716121197836
0.5510010325079912
0.5512737817245936
0.5541255987186514
0.5608451433508278
0.5889575945368953
0.6472093340438482
0.7863262184497515
1.0
1.0
1.0
1.0
1.0
1.0
0.5343617190639803
0.45076094451214627
0.4810873390262908
0.49889001885287093
0.5017346106146329
0.48962470985515616
0.4648872489847643
0.46571934997456754
0.4804366485556888
0.46117341651824795
0.4516752960391681
0.45265780808443223
0.4631203096420678
0.4493729656389035
0.4324630707861772
0.4254688979462193
0.4274948409851168
0.4211066690631748
0.41210659005511346
0.40485026023470116
0.40665932894909085
0.40143188561490284
0.37748124336070027
0.36412430138655943
0.36986953525093885
0.36927449284777436
0.35485802769975383
0.34274831443352677
0.352715297487325
0.3715702085163959
0.3651903414608536
0.3765230779081179
0.4063550202372044
0.4415672353363317
0.46468563003644636
0.4829486983056806
0.5100364957851604
0.5402724612480719
0.5498970912161227
0.5391572603925399
0.5482802706013991
0.5594611591548262
0.5604700568238736
0.5422513800553642
0.5351260681916016
0.5471029783349322
0.5628192076608477
0.5384459994547982
0.5248057813381161
0.5324607603236403
0.5418467563226897
0.5282962890261921
0.5097938343087061
0.5219994361115525
0.5271642661811017
0.5156594671161071
0.5162403248665157
0.5140971958611764
0.5349475255206698
0.5326730363313137
0.5315179689183075
0.5337786633032496
0.5573178466593094
0.5584644676702706
0.5585266439512844
0.5660460990535053
0.5990081274361574
0.6086966372742834
0.6170567783748677
0.6425857396646856
0.6802219914390815
0.6881169329607572
0.6567909383356134
0.6280513703755359
0.5994521205676095
0.5880546766348977
0.5519879329952733
0.5199537198398241
0.5244682569125397
0.5451353720083054
0.5478839948970785
0.5255014699070812
0.5386408422613587
0.5645238178182046
0.5895003063454418
0.6266199984110209
0.8107741058555046
1.0
1.0
1.0
1.0
1.0
0.5731815858939171
0.3696283882096595
0.4520097211603626
0.5017219563069051
0.4938165045015614
0.4726829615744935
0.46100574586387044
0.46069031401003013
0.47000774996525224
0.4579342791192292
0.4366693995201418
0.4379267685063974
0.44904106929110094
0.44465684142529505
0.42234718012713374
0.43017221333373223
0.4274608876350756
0.4179481333670888
0.3880775443926197
0.38890538017152176
0.39068403924481354
0.3878919083539206
0.36230885153006626
0.34626182562408864
0.3483981667086309
0.34963746419356917
0.34241246756239063
0.34270769502332293
0.36345209486686
0.3818698443786989
0.38894977315032636
0.41951117167408103
0.4535431660768362
0.5054646105997644
0.5189340878312313
0.5317103080733234
0.5478422604317161
0.5685821830720034
0.5679407388962937
0.5644180937400546
0.5648883589568753
0.5682923486817962
0.5760078222262968
0.5619819197902695
0.5523774077902692
0.567799130342396
0.5657047220915847
0.5571945651038275
0.5502069433108413
0.5517498182422492
0.5446902249427787
0.5373995549702105
0.5278961206309978
0.535862952430562
0.5507253747308832
0.5447017526799326
0.5378754629359199
0.5421454808680177
0.5592042750018179
0.5615807496292197
0.5587208815754454
0.5724445571531398
0.5918005203772874
0.5956564277067268
0.5894427968971648
0.6030941343595875
0.6243552161344865
0.6407199237017466
0.6518557696011529
0.6778260901485691
0.7060936828176513
0.6943492755331737
0.6703216026730063
0.6453924083902981
0.6235866529396914
0.6066685515018323
0.5575796127356707
0.5417866665520902
0.5612916214749522
0.5653303245510131
0.5589941907858357
0.5614020117472908
0.5721636099942822
0.589557446829052
0.6207463061520176
0.6999832273254151
0.9011680497720226
1.0
1.0
1.0
1.0
1.0
1.0
0.5921521759251231
0.39352626307163496
0.4659633578863656
0.4944215257002658
0.4887701612321485
0.4861181090363808
0.48045665912175234
0.4794279729600481
0.4620031020360159
0.44983951480738754
0.45829835947789777
0.46541593899170525
0.44320583022848153
0.4199044314632362
0.43688585759736054
0.4405850294834009
0.42405962740160935
0.3987140453669486
0.39669218238396076
0.4098912788349498
0.397282319638922
0.37974780138897213
