MLII
0.5
0.36510184810468094
0.5
0.36510184810468094
0.6429867659011261
0.5906109149372416
0.8032958087252722
0.5655234618080152
0.5037595560560512
0.29500163899138643
0.307321419890421
0.18246619317626686
0.09980501402425927
0.2495442350706202
0.40270760552835305
0.43374839154858946
0.4504655854639507
0.44874265074262015
0.4581421114478563
0.49528487548994937
0.5071412800694416
0.4623499225589257
0.5640994302764838
0.7458353063331663
1.0
1.0
1.0
1.0
1.0
0.0
0.0
0.0
0.34747410953209673
0.4511358715598096
0.4259620591830021
0.502138867014844
0.5524285396278715
0.5429000737274248
0.5599695091696437
0.6646618673441724
0.7265869057335793
0.6923422144518836
0.6764812243886399
0.6788007603978901
0.6626253845791046
0.6174618021446323
0.5944485836781522
0.6049947349578141
0.6194559740938435
0.6311870396173112
0.6624898729558537
0.7083633715038615
0.7726408205368112
0.8025961464768503
0.826660109499153
0.8473283312170125
0.8817130777061258
0.8654238870376979
0.8302823250259351
0.8116176443831942
0.7702675787615242
0.7017972162729693
0.6243748654831744
0.5657005664475233
0.5260388562423546
0.49690816706925156
0.460368832617337
0.4329142740043127
0.4347621696988533
0.44233570656833443
0.44316299550353405
0.4304165855055399
0.44423093582818785
0.46865776670635695
0.464057463255574
0.45998050689587994
0.47696219894002345
0.4874184330269243
0.49305890241661754
0.47668925096649256
0.4905782815195955
0.48827008695197466
0.4840910915693419
0.47096090210709624
0.46242625098361
0.4647135001686461
0.4599052920602076
0.42258552304202857
0.412605161402489
0.43593293534601685
0.4407175373846913
0.40988813323768564
0.3996023562474585
0.41226601529279155
0.41033713108606173
0.4092708462477999
0.4233099030112194
0.4566305978032221
0.49280415800143756
0.5161540467066494
0.5210978505189218
0.4905186609840257
0.4766973381605655
0.4587497420339003
0.41152393075313454
0.3781955753590222
0.37600555619652265
0.3370238406961836
0.315048170105333
0.33746517982469265
0.3806571179898155
0.37250726573730814
0.34774813780193947
0.3500752599710804
0.3774553525336741
0.3894505218144368
0.38088401220821383
0.38181128952908516
0.4344367105903431
0.664851102276435
1.0
1.0
1.0
1.0
0.0
0.0
0.0
0.3819569011539131
0.49731446516322525
0.4615495346331455
0.479362659825736
0.5258160237348595
0.5510742141238758
0.5757046275272111
0.6236552575040746
0.6689811218365462
0.7065211560838287
0.7121964757674083
0.7119140244236293
0.7229269332548514
0.7357124485462251
0.7232351475767131
0.7412493424269995
0.7798089746760963
0.8156235851922959
0.8350538534542686
0.8685632616519282
0.9154401830931527
0.939947713372683
0.9402439792180214
0.9487328234741754
0.9451951729980639
0.9512661501098607
0.9347963688395448
0.9061399107172562
0.8752143684934307
0.8365233229830416
0.7831431567832643
0.6991566404818327
0.6357036614216207
0.6094978947378648
0.5679260421038482
0.5107275209697194
0.48882606972558146
0.4849315143784362
0.47913623251475457
0.4625155686765467
0.4566641349137769
0.46263038108082455
0.47443122940559795
0.4613162085152804
0.4622209738848195
0.4735847507072693
0.49880986683822154
0.5007451702436798
0.4880739644271569
0.4983738366100092
0.5089893808736016
0.4940416463551244
0.46671443089881165
0.45510320046376773
0.46105140114564663
0.4325365904740387
0.4148008722015266
0.4195341769498385
0.42244070840850306
0.4262303525857366
0.42813869072279076
0.4400561018601759
0.4885245647720809
0.5388917385224985
0.5519572173793874
0.5768903730069137
0.6195585679888619
0.6261803934218685
0.5839167684435999
0.5501124335553739
0.5190226348116619
0.47349494341707377
0.45129310723232957
0.40539827860167754
0.3767174134669728
0.3986854150734335
0.3879958604386732
0.36462364374573497
0.35561287687982873
0.3662132666372875
0.35526368627814725
0.332957904277628
0.35116107344448155
0.41111363326918704
0.47655976090222796
0.7470046328695078
1.0
1.0
1.0
0.5937839513751199
0.0
0.0
0.08191936717974882
0.316266004055466
0.31590707486822567
0.3151423874565865
0.3568763376117077
0.36133117604509146
0.3754747171741473
0.4085140546108921
0.44911078645344127
0.4621780809016919
0.48814134665547765
0.5168506355878295
0.5511344924630206
0.5732640416860676
0.5924182316454061
0.6176560541388073
0.6552918325877782
0.6900903506168777
0.7037971681417338
0.7349172206002705
0.7886843708784719
0.8104130174444062
0.8016754399371818
0.8055484812754937
0.8135763392118825
0.796028230539801
0.7819561498942702
0.7587290799291049
0.7233574241084455
0.689028707644144
0.6299745443611994
0.5635400040524777
0.5086875277994847
0.48866246919531264
0.4572511485455456
0.42454619816753
0.4248005747420082
0.42953447579011206
0.41963818950060155
0.41745137269601573
0.4198130866273724
0.43174995827108614
0.4354447635014753
0.4342735353024674
0.43265524813561207
0.444163806513877
0.46477658151145285
0.45653240011938234
0.44074060389312886
0.4494800896099185
0.4560318912272132
0.4340672319534817
0.4147241382689325
0.42102940490557755
0.42047828672051174
0.40257206046887184
0.3912376390410445
0.41026977142719473
0.42267357560846464
0.42935280539362014
0.43270892862539617
0.4330196687902322
0.46476349456264393
0.49369130702475933
0.48729426433185896
0.5053405009020313
0.5211491203313927
0.5143316767007211
0.4981741554605114
0.4838134744674421
0.4624669817138276
0.4439229380599077
0.42660746711569175
0.3939192804827999
0.3889318700984647
0.39523640693903356
0.3943032586412928
0.37817340698854307
0.4031601806327604
0.42289881876339647
0.4409257126395084
0.4442884087459252
0.48397415175830066
0.5201080794381345
0.656935440269049
0.981153904510364
1.0
1.0
1.0
0.16379578289413965
0.0
0.0
0.37671276817798766
0.5099990782206253
0.4848890679978495
0.48968508204523975
0.5048636755803039
0.4936550488065253
0.4966590906603138
0.5217914554086076
0.5378245786722823
0.5418351652162743
0.5526707665331732
0.5813967162822979
0.6080193713417507
0.6229105974678835
0.6393570970384308
0.6621236362023837
0.6888895297561051
0.713283831354546
0.7265554732745362
0.7493608565548956
0.7813438683778258
0.7890703493209137
0.7835070580081829
0.7974514940143569
0.8054398631718103
0.814139710435334
0.7969362535782951
0.7713187469325963
0.7280164913658034
0.6878994686701725
0.6199969711464125
0.5524865068380543
0.5230512131444014
0.5045580144679571
0.47106433867920067
0.4600486373802757
0.46605860931697424
0.47002216259938867
0.48450876392461695
0.5018649993673504
0.5131396116065118
0.5319258202688372
0.5283444336063032
0.5246657775780402
0.5383732068337493
0.5731899197143634
0.5697993481229087
0.5407112834359198
0.5273917238497767
0.5131489156125162
0.499156746095165
0.47488027177282993
0.4449837118375391
0.42267750828869194
0.41415651436347156
0.4042772251528862
0.4114729551727002
0.4044586279414374
0.4096465911911982
0.3959052547702514
0.3997498193590171
0.42902350802049893
0.4415987747532788
0.4335744142205078
0.4305309268007395
0.41786909926792665
0.39842256912684804
0.37756737792754513
0.35000307362957667
0.33846642272896926
0.35162210756615037
0.35012228002817025
0.35669065420613605
0.377117173517535
0.39669383825877813
0.3993429112806335
0.39514122737134094
0.3946832539249
0.41325185714792106
0.4190333189065945
0.43291272893778726
0.4591663942196019
0.6197040303086048
0.9832402186972924
1.0
1.0
0.7813228908815071
0.0
0.0
0.14066955231903444
0.44060004447134354
0.4951478512615803
0.4699209964214667
0.4957570155892358
0.512902587751578
0.5340313533199568
0.5463004553878565
0.5459921298304161
0.5508249479381426
0.587491252716803
0.5995835712309052
0.5975920023408248
0.6062986758599659
0.6395729397432414
0.6608535971354307
0.6904260939895999
0.7155123053821774
0.7501241299423042
0.7879647580172466
0.8073494014041158
0.8294119223724332
0.8420059852061648
0.8647860247142362
0.8681211412221981
0.8516735212413827
0.8511575276367387
0.8499440988876914
0.8112635945733995
0.7475853144451671
0.7138719827577817
0.6826723499504352
0.6368025137797624
0.5888266297539728
0.5599762314572594
0.5451098203874692
0.5308128694936649
0.5180789324823192
0.5037251684688954
0.5055652194062644
0.5242280533203645
0.5249734663115434
0.5247089044118309
0.5293046380883171
0.5330782481875125
0.5168133894013389
0.5125231510665855
0.520720214905086
0.5337023489390416
0.5128718289834849
0.507102645430904
0.5286116788101575
0.5367529216081482
0.531893447492536
0.5254251730855475
0.5333264570510808
0.543958310988324
0.5440794674818873
0.5214984772666778
0.514756225570761
0.5317855823121354
0.5532693302747352
0.5635038305153957
0.5873461103377344
0.6155507218822198
0.6341006219152993
0.6108741320358495
0.5833305656878307
0.58343468804362
0.5755013687181634
0.5346767292986386
0.5036108636264112
0.495076636559863
0.47577938016255394
0.4684640027981593
0.4579108863274885
0.4709843847092821
0.4756870508053493
0.46614858201534837
0.4588241473003409
0.4697507378065402
0.47426490598636944
0.48660412581302986
0.49956260467042124
0.6458936211129209
0.998004784230601
1.0
1.0
0.8689774935325627
0.0
0.0
0.13405956597061128
0.4456184650618812
0.5206290526258284
0.5066125107240674
0.511015052237026
0.5206661113194697
0.5359109353196423
0.5608671679883672
0.5662870560131623
0.5668024647533432
0.5914042169193139
0.6338026838096139
0.6530301737358355
0.6563481493405787
0.7040163596798983
0.7519387864548079
0.7794079392106695
0.8052366645537241
0.8451939013973095
0.8851606234836291
0.9097462096649529
0.9185405430985462
0.9257729463315286
0.9380061222241185
0.908099251926292
0.8584706172640315
0.8334603550501164
0.8227584075588166
0.7948721279265576
0.7437165339397382
0.686042220875022
0.6380870540807153
0.5952843131125347
0.5524911346019075
0.5209572125954585
0.5052995385237657
0.4965198401584427
0.4829431833180899
0.47129172110419715
0.4587292006445624
0.4641539165864078
0.4580968455552844
0.44849643114651216
0.4461497818876537
0.4497829062044347
0.4536556213024655
0.45440516629382177
0.46656526853884095
0.48362306609226546
0.48350813484249555
0.48309624650911154
0.49063550354243574
0.5167714693981722
0.5260216334127059
0.5267293330710646
0.513119330518997
0.5120257885189768
0.5182388756363788
0.5007123814250559
0.48647352957133216
0.4999675274809756
0.5315057807351558
0.5498654296872788
0.546485076767383
0.5620244597873431
0.5804160135939976
0.5681040568501674
0.5416760011893629
0.5349849661066153
0.5355256348113314
0.5103726302740369
0.489396855383858
0.47137665262462625
0.4587237561563571
0.4661216955090916
0.4728425887684047
0.47307981550370154
0.4954040502278991
0.5349037523310753
0.543554945316501
0.5658387607569487
0.6402365454460541
0.6973908179699859
0.7664581612155343
0.8358702460528585
1.0
1.0
1.0
1.0
1.0
0.5253298939362108
0.0
0.0811885701667018
0.3242755165704331
0.4021433540172524
0.3808384214463845
0.36811295318827797
0.37943048384876615
0.40331125445819493
0.4207152029259196
0.41642973091141683
0.41637294197138
0.41488954701704983
0.4179998083905862
0.4222047562804384
0.4192511967080015
0.4299917464757331
0.45101926659328184
0.45983850239607554
0.4584249839050023
0.47469914696754556
0.506183876945139
0.5219139068293358
0.5266577686448201
0.5581927858604329
0.5802841723539995
0.5885803240701504
0.5900131474510764
0.6197588232305539
0.6457500110086791
0.656482374765895
0.639184577604812
0.6111554435993205
0.5960027502432057
0.5770639237009866
0.5485980846467802
0.5423976806611501
0.5466748984243139
0.5538721421648087
0.5453459090362794
0.5436110819891213
0.5657438570516626
0.577312279970821
0.5853256033900005
0.5834199885289261
0.581083134926663
0.5911676863692998
0.5743489885937898
0.5403942838204314
0.5308281222626496
0.5169603427794537
0.5015633607135397
0.48323855310887626
0.47740623867616927
0.4688693357330805
0.4658512101234539
0.4487961060039066
0.438345149761577
0.4425369449645181
0.4460135593605311
0.43630758007177634
0.43433433757069106
0.45670182314311747
0.48343277286485675
0.488095428260724
0.4992191852156703
0.5247960728653609
0.5371133956205508
0.5179850231651523
0.49424471246360324
0.47945511302741356
0.4675079912615946
0.45689730804527456
0.43980450642710717
0.42620666041009914
0.42814551697675957
0.45339912231478713
0.46832165535959075
0.5229799867855861
0.586098514713861
0.6186958484690789
0.6639114597941784
0.7242410467225976
0.8010130443344078
0.8872499135992991
0.9750618597335471
1.0
1.0
1.0
1.0
0.9429101744514675
0.09843694780369586
0.030678763918791763
0.34496193330505553
0.43380132745918765
0.405813228745608
0.4019079301885844
0.4152943661592844
0.40292882174416833
0.3904165937270513
0.3958216596937844
0.38031791877592613
0.36011753281958475
0.3383123942714816
0.33935114963644814
0.3380713712272384
0.3099656721708993
0.30248257783408405
0.3132618220950649
0.3224661183204495
0.3210462285758058
0.3316984121920922
0.3719830409577313
0.4020204114875293
0.4262856199511374
0.4608695355238465
0.5072356899414158
0.5366970857599443
0.5585120666260994
0.5700900980291207
0.5795297840946411
0.5935213839508146
0.5842980460272035
0.5438200396369612
0.5222344755932294
0.5118463230648662
0.488733876625205
0.45890040382915975
0.4586439772897893
0.4720845665736529
0.47604498967014275
0.4742720483146757
0.490290899525727
0.5083351871864517
0.5168288756363973
0.519123859546912
0.5192908810861426
0.5273883983089099
0.5382230259724432
0.5396599080092414
0.5173770524375388
0.5194251620925469
0.5286445337447075
0.5204788494467331
0.5008215432190772
0.5
0.5079078673145769
0.5003571716749845
0.4886629013285749
0.4926909233802309
0.48691353536585424
0.48653036754871304
0.46247824016912953
0.4467307544332457
0.4510639125913304
0.44944827622687955
0.4395123551869169
0.4394204100041246
0.46788795423305113
0.5142122111262679
0.5362371822082752
0.5705202980875305
0.6020846735425978
0.6089727613534548
0.5924973516343653
0.57896378097997
0.5620853925362747
0.5510232563246648
0.539104588054166
0.4941127349326197
0.4906548085627699
0.5231173822761817
0.5627322739312832
0.5586345678141044
0.5849266429906892
0.6391824740200753
0.6853249999629785
0.7379234709475824
0.8179355654862288
0.9063661256527752
1.0
1.0
1.0
1.0
1.0
0.7379392964449927
0.08752965462663083
0.21977470924320325
0.5000297203487888
0.5602819398461834
0.5132855785540988
0.5212599841578217
0.5369607825860169
0.5248794212265655
0.5208691183576365
0.5232221472303251
0.5287101266681371
0.5198645431568709
0.5058622378461616
0.4994633244711901
0.5002980609006402
0.5041110834691274
0.49166056296189753
0.4824063906443192
0.5023630591415136
0.5130835139899047
0.4949673703004295
0.502518040199149
0.5238144045981457
0.5363775693835504
0.5334720448956805
0.5391029997525524
0.5507820106292474
0.565968294678534
0.576000231072452
0.5671379570532237
0.5547772842688583
0.5611080098417208
0.5426753061439187
0.5195505045217143
0.5129204438313766
0.5068200012165065
0.49125408982789154
0.4842336309323888
0.47792701498615175
0.48955421315663894
0.48440351531100034
0.48035210954691526
0.48801786198575303
0.500344224042266
0.5173269345643476
0.5208978223709075
0.527322551648832
0.5471542747178653
0.5745641790461636
0.5740181629338028
0.5537738953050487
0.58277231742541
0.6042271912296975
0.5930728519128085
0.5755651960329247
0.5605611128174754
0.5428238140525184
0.5176878632334407
0.4999831621009103
0.488508902440294
0.4771672391969659
0.46901836130216995
0.45186332779691984
0.4477103008795235
0.4789041241843222
0.5172714012314881
0.5224464821937571
0.5279429967572538
0.545163674666933
0.5396326496550882
0.48966356300310165
0.4534415220910312
0.43780921757848723
0.4077840098644602
0.36504667339700625
0.3374937278181673
0.33605476594067274
0.36446187327892954
0.3948172008839233
0.4219867377100993
0.46945327184667923
0.5315870695559732
0.5904663669690773
0.6356320256803902
0.7085182255066682
0.8177366370554072
0.8984560508591548
1.0
1.0
1.0
1.0
1.0
0.4740157777617382
0.0
0.10030703788924637
0.3899092191244907
0.44511569151840347
0.4044712250276773
0.4250951812260981
0.4374571220456781
0.42594560708606133
0.4489655817186759
0.4671057013383992
0.45688708620329954
0.4580546643496759
0.46613599755552226
0.47669421033700743
0.4610659614262623
0.44771151569621964
0.4534237674678353
0.46209260640034344
0.4597072902252185
0.4566501007610652
0.46808720212758637
0.49076077724715583
0.5227876981546813
0.5228015498790117
0.5323284714134242
0.5636674105172063
0.5810970901991872
0.5698436274618885
0.5724774111650704
0.579487108078873
0.5773801444861383
0.5485231360416938
0.5304228120733877
0.512310004729833
0.5132632073965282
0.5084516328494649
0.47438731666944467
0.4812849863677843
0.5181971475916195
0.5082917276850079
0.4776339546144809
0.4807933213675085
0.5077953958018331
0.5360352465823885
0.541966975668568
0.5665517077621575
0.5557728460517775
0.5549737752400742
0.5550655785543726
0.5609886067765173
0.5732531322535752
0.573462442346546
0.5582074198861606
0.5439096241753367
0.5661178094447001
0.5770660692734151
0.5668325740545676
0.5663476655289268
0.573140291142623
0.57858240606495
0.5802876171628348
0.5892791332446634
0.631903245028717
0.6442827417863798
0.6736104649487544
0.6899200567798726
0.672927619097269
0.6550890902953699
0.6399333650017213
0.6057008934003734
0.5565362915744234
0.5478045743145432
0.5514345486007112
0.5074608422568396
0.5090685829509243
0.5402974925258119
0.5571051577901248
0.5662789752018682
0.5788938411862887
0.5959892818098201
0.6454780448458228
0.6890985359551495
0.759004548652797
0.8394906784216924
1.0
1.0
1.0
1.0
1.0
0.4228722766311024
0.0
0.0
0.40441234661180137
0.4325881527458857
0.3767904182754233
0.389290328585939
0.4056155531293422
0.41992571138645324
0.4208821680596159
0.42550711896086824
0.43736276936425844
0.449368790380346
0.4416588330026226
0.4461783888091686
0.4684399632919266
0.4848724574585869
0.48805124577814557
0.507691520261557
0.5363810351473356
0.5645099489295131
0.5806264080327933
0.6048515861125795
0.624742342608869
0.6494092089078201
0.657085249587967
0.6541056175609654
0.6351188272605455
0.6243634326922005
0.6024856282040143
0.5788754470058197
0.5733793502686119
0.5535735881010488
0.5261228594158569
0.5017690159730115
0.48400505529650817
0.471935414744856
0.46143690485267397
0.44216073300857445
0.43408299900315317
0.43758804426117753
0.4672853980742838
0.47075901516692564
0.44255106292036067
0.443109631472456
0.45464823821783745
0.4326753371846488
0.39512332592096894
0.390493536324598
0.4086448959859328
0.40244594611265505
0.4170724034265648
0.42308489762577306
0.43702422550131514
0.4558113330713871
0.46235247887961617
0.4691642485947476
0.4874262096276545
0.49417961786969855
0.47900388839307634
0.46808377004573076
0.5000914552927149
0.5220683049405048
0.5222020904173776
0.5279927263330021
0.5668252335995128
0.5781484660037144
0.5664285333962169
0.5420339443024512
0.541232085017979
0.5173792524459403
0.49359166818467665
0.46688896639168365
0.43234038951789255
0.42050425675466496
0.43352026903573265
0.4386211765218234
0.4733323400441608
0.5306393489621979
0.5746813109619358
0.6060541136350823
0.6655746243256027
0.7491346032800996
0.8362239896241116
0.906549701017212
1.0
1.0
1.0
1.0
1.0
0.3632879368198987
0.0
0.0750876485105488
0.3891794093392317
0.416246543728447
0.3725580718258218
0.36992857791752976
0.38455217316335266
0.3945674304190698
0.40529355125177374
0.40452892522849454
0.41021356016253563
0.41464811211539165
0.44059632035266516
0.45868704304222324
0.44503147288709755
0.43370539322275786
0.4701346322011367
0.483281683569602
0.46983997665954524
0.4668868351490346
0.4874748555809343
0.5134356500253702
0.5462281450725224
0.5590658865171091
0.5731890072937607
0.5730368795496801
0.5840555322576432
0.5907789308634741
0.6050543939474834
0.6272892308010476
0.6078585164893839
0.5653968477678437
0.544655264449343
0.5625153640463679
0.5277820340689517
0.5087551675146207
0.5318182443322692
0.5450386994659326
0.5432019964273673
0.5466043327610334
0.5498872425555126
0.5643427395422718
0.589788018924057
0.594791805511128
0.5953007085705524
0.6107091342620761
0.6249827268267735
0.5998791742824923
0.5683874419540229
0.570377889284275
0.5690844306529254
0.5460833043044556
0.5223903836628382
0.5275141802030682
0.5306912616118133
0.5150057322580841
0.4984412072988415
0.497773857972495
0.5032254793006121
0.4997848777652371
0.49186663645036266
0.4962300107438324
0.5231434065240861
0.532406793549306
0.531305678012938
0.5406350767832944
0.5419052777871273
0.5106696878131299
0.4846677448920075
0.46238325146103654
0.4424206216126524
0.4428893755781774
0.4092490165874169
0.3871323545952704
0.39364733472863217
0.42242326412669257
0.4432513548524857
0.45654575159697214
0.4942402689142981
0.5543409799495891
0.60856162779031
0.6767830960268028
0.785375353003367
0.9003380452931296
1.0
1.0
1.0
1.0
1.0
0.0
0.0
0.3610316315904356
0.5871790086631874
0.523285992060122
0.4783892472157355
0.5075489077587603
0.5053140154791256
0.474577211781679
0.45324427141435847
0.45218059961447493
0.42998799169886875
0.3979163922731096
0.38740453470351877
0.39505426724321885
0.39749109469109706
0.38985228912823866
0.36952907584863937
0.3850417453957056
0.4251528496887257
0.4368269382645346
0.41938733871757067
0.4232325879267103
0.4441936362198007
0.45877159893205155
0.4451832383296187
0.44344436892265
0.4578280456188043
0.4671334497002544
0.4657553473341583
0.4698463622435626
0.47422039081828427
0.4748086580717071
0.4706896434886871
0.46408526139768513
0.47740056864338315
0.4874330857481904
0.4911658043430844
0.477547578571781
0.4701919937692235
0.49071953965174425
0.4895762953156265
0.4868540141133731
0.49423198172392924
0.5045534792499986
0.5110632155656224
0.5042221294031892
0.48751054605207783
0.4898725915864034
0.490754056007051
0.4726739177611722
0.4613007105085073
0.4736825420444474
0.47492450228562466
0.4594079777888592
0.4343973102485584
0.4525169733994715
0.4722796508396335
0.4568800903106684
0.4537811688643023
0.4741881345103945
0.5027186939542548
0.5155356187192506
0.5293261539640935
0.5568937251582969
0.5910991263991969
0.5745428457079267
0.5304578859206031
0.5187223799382604
0.5040596298097221
0.4728158241411914
0.44606514725500856
0.41510098023175124
0.3846032501456972
0.37840216327702636
0.38510201037769054
0.39280553373524596
0.4279901572398276
0.4566974461959597
0.49153908083030656
0.5452648815294098
0.6390301220734352
0.7459214292814575
0.8450596967164131
0.9721135425757875
1.0
1.0
1.0
1.0
1.0
0.06161396964221488
0.0
0.15600711195361533
0.4141683663134515
0.43267729513436437
0.3975416291700486
0.39118476079166326
0.37641970289438653
0.3877079513604955
0.39934022255533375
0.390458714553063
0.3851133781864192
0.4003386777781629
0.41228583984632816
0.4074184562785999
0.39498501438082606
0.40920311297571166
0.43323509245137426
0.43860157020695
0.44728217298192574
0.46989700557397196
0.5066100870146891
0.5110330829452645
0.5215177257518897
0.5357235067440103
0.5535974818506973
0.5677572123766902
0.5699303182106027
0.5922748008427131
0.6131090798370282
0.6277193172155399
0.6116783463736862
0.5848990194889714
0.5739944291367456
0.5577527256563681
0.5188252320219828
0.49684538901904185
0.500274184626334
0.502491597837629
0.4840509300084256
0.4617596571524333
0.4724612300237016
0.4804792030798154
0.4676007109915098
0.4531349432270407
0.46123662840056695
0.47753598756133736
0.47454351892688634
0.46256321083576274
0.45821337796813477
0.48122973761924853
0.48585747222852965
0.4669089226174111
0.4657714311977122
0.47695210815251843
0.47376090680254485
0.4543447701202151
0.4534575551502639
0.4625782189430616
0.4578880554894319
0.4491681855804731
0.4625359030596875
0.49826636184190376
0.537506255600072
0.5512576761045811
0.579739310695902
0.626265420832669
0.6414427888380965
0.6231036353052406
0.6012458289398038
0.5979328210681342
0.576969173320735
0.5556773727391616
0.5220825199334466
0.5096463543542044
0.5129080948679859
0.5024717155666942
0.5054100895215663
0.5233771964678315
0.5503112503961034
0.5723158509739676
0.6041304770516268
0.670529091671302
0.7821672378064315
0.8713222761131172
1.0
1.0
1.0
1.0
1.0
0.6176718889142541
0.0
0.0
0.28679875278408284
0.36024659350213656
0.31658252181984825
0.3169819425094961
0.31520010673049226
0.30394046553135307
0.3152188241637049
0.3458403187369474
0.36376748143485715
0.36033292756149826
0.374460574632125
0.4087837179200509
0.4359615568625371
0.4315167806943987
0.4395182778727804
0.45643609544031544
0.46944565161657986
0.4672565969235796
0.46120124018675324
0.4868800703159423
0.5116326338447346
0.510657676795871
0.5060803324559378
0.5425722981223644
0.5914206053727618
0.596684547007617
0.5892037829656792
0.6040098719411069
0.5977425761961548
0.5712594455582709
0.5402013077631456
0.5312671316784824
0.5312582769682404
0.5260242499239756
0.512089653088381
0.5110054857711877
0.5319193956645506
0.5408106262070812
0.5401007630606525
0.5346707831094952
0.5564629135339938
0.5666588775290263
0.5454031542599558
0.5314325616462371
0.5382381032257907
0.543580525752229
0.5251409251197068
0.5160758766072789
0.5010948073909341
0.5025812440808257
0.48722729206369975
0.4567217571433783
0.4573203905639561
0.46694185845715375
0.44721765495780447
0.4327464558595954
0.4268013082668741
0.44165846527714947
0.44139908788474563
0.4418888903268508
0.4613009878868712
0.5128071519798378
0.549808481695153
0.5584441638498612
0.5623451957547971
0.5533562807408455
0.5204607512617098
0.5005674857570793
0.4806224247395544
0.4626761487274013
0.4963040184229543
0.4755103786758119
0.4485546181353014
0.48696643966370523
0.5272985259296368
0.5407591769855394
0.5701029956726036
0.6028549694988625
0.6611501754006224
0.7142862782468102
0.7754091056089769
0.8705650690766629
0.9556372139487547
1.0
1.0
1.0
1.0
1.0
1.0
0.02187321417769903
0.0
0.3821580007380608
0.559578644139524
0.508837841753246
0.48783268031972166
0.5086800215644132
0.4940622692694453
0.47187498393743493
0.4706168111084506
0.49104678971558036
0.4748396169949685
0.46824659735928914
0.47598771595418415
0.5005034131877042
0.5064813618330438
0.49022899898890665
0.4929984522716454
0.5045859617383454
0.49516036002629366
0.48455523087524677
0.49613860712948216
0.5119847751601136
0.5313349213876901
0.5373592525781193
0.5399378635685457
0.563962127417516
0.589869309622079
0.6076274722628259
0.6139595252962757
0.6298812764731089
0.6240395890985952
0.5864088281975708
0.5376878232526054
0.5426727075857557
0.544620475801567
0.5066874606043951
0.4873609511927325
0.5008538798467029
0.5169509188021023
0.5234822613704349
0.5173329068044553
0.5281458408699847
0.5641262469014123
0.5875189200025783
0.5918629555911202
0.6011938340713057
0.6184951002527848
0.6310957830251057
0.6225908922561871
0.6119401607771444
0.623944164886244
0.6162657723175144
0.60251848809624
0.5730965622422275
0.5480323589088332
0.5280600789320778
0.49506704535900525
0.47348081131772624
0.46502977194052
0.4634248510196889
0.45229384463905475
0.43400884330015
0.4371963335306391
0.4576211748811686
0.46430496582563735
0.4636811401719746
0.49954293935044036
0.549843322590527
0.5759148205887116
0.582756924764531
0.5739400215826533
0.5516735632526256
0.5194826246621091
0.4587791618125836
0.40825268266058234
0.37877398548288455
0.391507033828126
0.3677005833781834
0.33924187001418904
0.38443578379687693
0.44269026473148543
0.4737325834935433
0.5164897208688133
0.5767233076319105
0.6398410969355208
0.7080265174233075
0.7919495739597322
0.8923832403259148
1.0
1.0
1.0
1.0
1.0
1.0
0.0
0.0
0.3811435288278398
0.5057272293550527
0.43400003675497245
0.4204104808232015
0.45444250121354735
0.47175234479110256
0.46718670033502036
0.450523782437201
0.4596968604218869
0.47363380703101965
0.45690099799234424
0.44472814291078705
0.4591219587363716
0.4671062470360292
0.4471402014842381
0.44997200220742695
0.47686899018660067
0.49836871361363366
0.518495641330421
0.528450230095628
0.5426046180986326
0.5648404061991774
0.5761643770083771
0.5796454682054895
0.5836607994604723
0.6027236004002058
0.6018580902405127
0.5687034555255762
0.5366826871287482
0.5150208198177718
0.5140163160752996
0.5085375287132505
0.48949705785856706
0.49689086147383266
0.49266590471570354
0.47824929387692555
0.4718686200799794
0.4841315709032602
0.4966724569223901
0.4895846173874032
0.49250980005806266
0.5078060782904243
0.5366743549196318
0.5275099905126619
0.5119175640866116
0.5266128331153361
0.5450857122128205
0.5501575420957752
0.5421678644101876
0.5296960405625166
0.5418819832079802
0.5382984338139429
0.5195310013789279
0.5162135610847677
0.5505728524547481
0.5709995521585756
0.5682844470614012
0.5616788292386486
0.5761780536236067
0.599361118913896
0.5842159027038819
0.5608834283268184
0.5814924523790845
0.6090977048444696
0.6189685379796483
0.6195089592887373
0.6369214069700173
0.689016721027956
0.6643018520855979
0.6364934647796882
0.6177176251173322
0.6209069883184168
0.5885494579880106
0.5585160594612805
0.5398491388511839
0.5136859332035532
0.5220472138771151
0.5254557494433868
0.5364266564058292
0.5616130581782309
0.5930752921504894
0.6137535474050413
0.6497462929294604
0.7213366364009747
0.8312138553431023
0.9196679567097308
1.0
1.0
1.0
1.0
1.0
0.6302252870662446
0.0
0.0
0.3530692236494307
0.44589613766174985
0.40347870555062215
0.4089098002108077
0.4189492418179884
0.4209676206200399
0.4394253231343617
0.45885097384101475
0.4367358629634442
0.43101208128189994
0.4503508159069748
0.46752417713760697
0.4666259078802228
0.48188870299069675
0.5042063644439028
0.5318991077664081
0.5465296330833123
0.5591215526424825
0.5878477862648259
0.6204685663276177
0.6431115509115098
0.6427915478112715
0.6574103785562057
0.6704879363926806
0.6542266377168297
0.6194472023964541
0.5985805647301868
0.6131950365803346
0.6167072690017491
0.5854200556734321
0.5511550704413106
0.5414621412892849
0.5172627929961149
0.5051622892675602
0.4786460974109116
0.48150963649579437
0.4865302299714897
0.490709705978342
0.4827931337499572
0.5037972498217276
0.5110012875926344
0.5056122688651707
0.4765298160777095
0.46432910760932267
0.4663136845354926
0.45489792672527524
0.4432544148541733
0.4603461800994414
0.4813472900977267
0.5009416307634954
0.48546980189544514
0.4919798898482409
0.5065673863166558
0.5094594709314425
0.4987399929832349
0.49951585702484486
0.5017046475248426
0.5019854656530559
0.49628834696740587
0.4918164617227806
0.49910241762301516
0.512187526439767
0.5117864797833378
0.49526217368113734
0.5297251306283537
0.5806331308848881
0.6109030695269851
0.6243804142205763
0.6493070369998919
0.6557626136110833
0.6331257727192072
0.5952863969391885
0.573176687134655
0.558861400379189
0.5593411667097206
0.5099735329202545
0.4672842336334697
0.5147596912121303
0.5372626741060701
0.5516811905138835
0.5774969806282593
0.637293903853297
0.7118130120552515
0.7830041480198927
0.8933200426546829
1.0
1.0
1.0
1.0
1.0
1.0
1.0
0.0
0.0
0.31587252514831166
0.48561137012801725
0.4387016567696841
0.4219899330356924
0.47323277519361523
0.4850387649645488
0.46849488289957425
0.45198894500348097
0.46887881892956135
0.4828864599945568
0.4809735734332759
0.49905657964139366
0.5237629510016291
0.5397360249322185
0.5519308686613835
0.5565972284196846
0.5927366659031336
0.6087922440879148
0.6034099428113306
0.5939401102417949
0.62310525966894
0.657530032298723
0.678455287550802
0.6874892241215587
0.7174124246720377
0.7548045451068013
0.7616419852264785
0.7573826735472148
0.7835832892756548
0.7789796658545027
0.744327509472072
0.7117038421639484
0.6716152831478277
0.6459154569760355
0.6198739728228951
0.5839080555113032
0.5639015327738666
0.5685477717966524
0.5800059098963335
0.5613182230475313
0.5430713960299376
0.555968907517295
0.5723455329663067
0.5664109424608189
0.553714053056022
0.5498271437364167
0.5612476622820244
0.5518471859976213
0.5211580922190618
0.5239500542515907
0.5344714763794443
0.5252231589371288
0.5078551880012772
0.5138041911265236
0.531710479787036
0.5231210222690399
0.5043964469553314
0.49878673144333796
0.512076292261098
0.5194494560898548
0.5027951551106603
0.49861405724226904
0.510434835366486
0.5240069490807746
0.5151768900663221
0.5166022435699409
0.5516266393160218
0.5873944114943799
0.6187529624912287
0.6226666941066048
0.6172028054342004
0.6104730464854379
0.6004934717924769
0.5573664923615811
0.5292226741476436
0.5301845446897437
0.506640357992558
0.4645247153195827
0.48210812385619645
0.5301264168437889
0.5608214486582559
0.5887818359521955
0.6322375592766452
0.7010566030929801
0.7806692325141694
0.8591595622509665
0.961888783049659
1.0
1.0
1.0
1.0
1.0
1.0
0.0
0.0
0.33594976075475247
0.5020949780696926
0.45268408897770646
0.4448581411631986
0.489794166790894
0.5178391678868485
0.5147081876076907
0.5086309160561748
0.509610358704181
0.5215630062160906
0.5127898249435444
0.48501599221549263
0.4557719351101873
0.44951598913977736
0.4384537534709885
0.4067886155108381
0.392918296558505
0.4338878707143462
0.4569067747800214
0.47878745918836063
0.5034539746164152
0.5591937738003837
0.6220638952691436
0.6619376143905921
0.6739778151621645
0.7103503070576395
0.7433129184657672
0.7502518202259297
0.7257227905275269
0.6926918451776655
0.6604157192634851
0.6304895948721254
0.5845995078811503
0.5592226191174081
0.5420887139262366
0.5331564792431401
0.5045412629933056
0.5023754254249048
0.5173398159522862
0.5274901513582295
0.5293699188372896
0.5498067959209706
0.5660586929120435
0.5916824787649563
0.5762197797659769
0.5775338746699894
0.5965375009931678
0.6080394564859665
0.6015474019079237
0.5945529122348915
0.5904915347290268
0.6096981515511839
0.601957535827889
0.5787776059568815
0.5647579543016668
0.5668546334803981
0.5738022904383555
0.5486769155671704
0.5388360759518276
0.5586019232331924
0.5621885085358637
0.5417784758788986
0.5255035539799622
0.53658009591886
0.5645014268860263
0.5801896552664655
0.6018655810433594
0.6485623453956247
0.6911986890102124
0.7007154413230706
0.6892954739090008
0.6809222126882848
0.6581143385469284
0.612667882830596
0.5605743151885689
0.5423956047583709
0.5110891264461701
0.49834845781065046
0.5052846157277471
0.5502848795015728
0.6141760166586253
0.6874853735379303
0.7320258010251124
0.7981426588381284
0.8855237968609753
0.9951930658266296
1.0
1.0
1.0
1.0
1.0
1.0
0.6143711410307846
0.0
0.12255288064712251
0.602958421716717
0.6273559779420335
0.5509126433107282
0.5769513670399385
0.5890561422078614
0.61867389941896
0.6212962385504788
0.5805052025008813
0.5916973455845883
0.6227083891646223
0.6215386067650291
0.6187323673285043
0.5458194647244192
0.5563399534209463
0.6140014465171688
0.6319396720455517
0.6259530963537836
0.6421806656060718
0.6843370736650384
0.718877183676361
0.718373810496088
0.7261107664958157
0.7504475230063578
0.7762941714912106
0.7737575825677983
0.7560588327105012
0.7787035341050127
0.8033265505243998
0.7784373740652144
0.7329938273092841
0.7160952722199164
0.7097544329492014
0.679069912333915
0.6480154302759027
0.6469828155527434
0.6472831759766806
0.637564234560615
0.6265147707637293
0.6181187377760181
0.6435979315283429
0.654972727844499
0.641921855598836
0.6399812486720561
0.6645999610061307
0.6641944143898345
0.6555180226987194
0.6438007556924572
0.6517663016697262
0.6610467754162944
0.6305069048394791
0.6066890055329909
0.6157076159390422
0.6159662728722345
0.6166678933893118
0.593904133949815
0.5823200129973471
0.5915849015854509
0.5690765996172564
0.5462583323695595
0.5429709328976096
0.5709944875103601
0.5624175398891268
0.5470321357315024
0.5398040887062182
0.5595082498680934
0.5795090058513015
0.5959676428779473
0.6205778595843359
0.6653720267379157
0.7012800100594812
0.6819341591920263
0.6527743298247681
0.6557955990437262
0.630107509852105
0.579267281149784
0.557601742497263
0.527744022094513
0.5136103732651865
0.5068222959091646
0.47332336175285966
0.4658082296904242
0.4568404050555904
0.45655542672142796
0.4724266090517581
0.4937693654020533
0.538842187142727
0.5779259149436452
0.6791916840434835
1.0
1.0
1.0
1.0
0.7670036961844886
0.0
0.0
0.31970559754828587
0.6079238076358435
0.6387510752198206
0.6435659672454509
0.6735167023904051
0.6938286556170971
0.7396057794182294
0.7529062851122781
0.758071275512427
0.7755576289239453
0.8010172169523677
0.8376547469206826
0.8428484076238127
0.8440188557583156
0.8550562894911415
0.8820307983225432
0.9025513965820174
0.9054537147980428
0.9404940626877067
0.990909670869278
1.0
1.0
1.0
1.0
1.0
1.0
1.0
1.0
1.0
1.0
1.0
0.953000531135935
0.9100965721029102
0.8212408340377717
0.731540090037352
0.6818453151392754
0.6651056903451527
0.6587001765030024
0.6406915124277276
0.6364620335802001
0.6545044407610571
0.6365662688390206
0.6006857477168815
0.5793606663691103
0.5778928270896181
0.5792030805583998
0.5528558304316354
0.5579525023656807
0.6011839833421546
0.6216355467266667
0.6170359577523374
0.6067500486534618
0.602446959925946
0.5865256218775079
0.5733008306636028
0.5672707603038738
0.5795191987803452
0.6023912190417162
0.5959282442401387
0.5934155095687054
0.6045037330997877
0.6194306839705491
0.6362509500804127
0.6471146725798015
0.6614169761402654
0.7003257713280807
0.7121126512215566
0.6781027954220843
0.6351800673978623
0.6384718574271021
0.6075616590171425
0.570557152317357
0.5580239998196268
0.5306600107027113
0.5305566936137529
0.5328231572186926
0.5202897869326338
0.5222361349323975
0.5373646347688598
0.5212838269118822
0.5146460525639249
0.530100649144846
0.5478061739034696
0.5561185339570122
0.6547943696901858
0.9994219906939017
1.0
1.0
1.0
0.35934623581247005
0.0
0.0
0.5107924808994333
0.6637488345755502
0.6286837300362784
0.609779261637493
0.5878416160635245
0.58297527721812
0.5884674727883661
0.5955032986902646
0.5827920493448817
0.5771588550952199
0.5878361532840674
0.6079168238475916
0.6079977698913683
0.604608900949547
0.6090669045052185
0.6435309544407214
0.674448015207561
0.6919355937346603
0.7507675918729848
0.8125320702475183
0.8436435142590257
0.8645635007160859
0.9174446940427483
0.9537605636103347
0.9809532214798846
0.9802200229042161
0.9700400699156123
0.9552395786597996
0.9206841558902795
0.8344063804706892
0.7580343635973827
0.7040221323797308
0.6498391732880957
0.6083937510554099
0.5715863509893404
0.5623625995225121
0.5619971600878965
0.5615241557887707
0.5585672126784594
0.5718577694148389
0.5733820862458179
0.5742564782386511
0.568353555334697
0.5765117491345361
0.5777530301593226
0.5813118193971023
0.5698628529138764
0.5560553545239507
0.5552408654019012
0.556197297007209
0.5366867951741837
0.5224436726606545
0.5312776662023291
0.5358715528014316
0.5247308475032885
0.5253327043180527
0.5311505088648121
0.5312908726281458
0.5150699046943403
0.5051701599514973
0.49248642719044716
0.5028287336173399
0.4959140871204519
0.49991581832534215
0.5313494789978176
0.5727345714535124
0.5937586645624102
0.611528169632422
0.5951348461236765
0.5807830314002925
0.5669168398634771
0.5211436505844034
0.4906116149913224
0.48205782682319287
0.47140655159344513
0.44470502361036546
0.440303755888418
0.4450959820441394
0.4584952292149983
0.4647652971791162
0.4697453714369684
0.49393425724491735
0.513742058618958
0.5091807675071957
0.5201278471936988
0.6981191434738292
1.0
1.0
1.0
1.0
0.0
0.0
0.016197995523045527
0.5040976731418609
0.5353156459733547
0.49214414713114973
0.5165236016010697
0.5381221460688733
0.565349545202328
0.5559836158530012
0.545653825056056
0.5461095742723894
0.5720715193073684
0.583384274654772
0.595851620495766
0.6055194919192171
0.6319773798924693
0.6715172286480878
0.702954978627266
0.7143548687848835
0.7544074762128506
0.8000347626373578
0.8220873884239903
0.8265889292947677
0.8448589058760027
0.8444417170925742
0.8447871262649969
0.8271722669935769
0.81096980474906
0.7928181102919508
0.7519265074213616
0.6809968647504367
0.6123784517923868
0.5792483177225312
0.5562692101339756
0.5122035869778719
0.4871999520881455
0.4870563487888216
0.50721658094254
0.4960920418180142
0.4880022872803741
0.4943576945422531
0.5030986625398256
0.48952294338560576
0.48113025877304894
0.4888791475382316
0.49624512638741536
0.48831998810226607
0.4541838405530136
0.46564880972727146
0.48019573488873213
0.48138715408781474
0.46594866786206357
0.4651148753797636
0.46731414918319764
0.46368456344592845
0.4425478312720448
0.4380748211255071
0.45591967535174377
0.448088569264137
0.4383333533741668
0.43104048843867043
0.44347226303376797
0.4388304425427588
0.4298512869291834
0.43688073081067974
0.4751378269451136
0.5126346522609863
0.527549720020384
0.5522492875324214
0.5585539375105033
0.5444219871531439
0.5251754266425303
0.4860135826414238
0.4446369437851154
0.4484030830098963
0.4065160400214718
0.35539850945373325
0.3641905767613533
0.3916635308412635
0.39153403932447917
0.37553853330672277
0.37527598862491496
0.3955223767188915
0.4102561662238203
0.39998137256478977
0.40036466512685853
0.5523980700239053
0.9738498092360224
1.0
1.0
1.0
0.0
0.0
0.0
0.4800064602070681
0.5256756158652738
0.4644762843198847
0.4859583573635663
0.5210655751487062
0.5385467314373173
0.5417181606285729
0.5399295245844008
0.5255102940510851
0.541575253639212
0.5522723249229184
0.5525555785185643
0.5770406608170409
0.6218015681096682
0.6692173858958383
0.7082686987712605
0.7455422133465517
0.7869390888667442
0.8373493921228541
0.8572405286158021
0.8459165281188765
0.8737428996803704
0.8936444147327203
0.9001198634356653
0.8872506424645614
0.8760454256775813
0.8641104877629576
0.8356313844071392
0.7870375672853174
0.7391059426495303
0.7110543996884358
0.6536746859718379
0.5913229523796779
0.5596494223407285
0.5502721593416073
0.54830236038376
0.5454480926304481
0.5549695974250729
0.5635474021243632
0.572982656676784
0.5629053416046278
0.5428254048462084
0.532602614383581
0.532601681298219
0.53608373022423
0.528204899585628
0.5205585151355416
0.5395834742712659
0.5433871664474828
0.5234340648673297
0.5129135581435162
0.5288736480660418
0.529669571006459
0.5142989399244131
0.5047599975046178
0.517915101844741
0.5257650977792305
0.5047491290079117
0.4884290871746614
0.5282458577353608
0.5206814072739079
0.471822770513576
0.46628871009803535
0.48725652274385645
0.49151733736024206
0.4943386612909505
0.5172706030563565
0.5610259261707509
0.6008978461393708
0.6105612862476558
0.5729783186433954
0.5803224690093691
0.569620336275379
0.5202202906920806
0.47202344270070984
0.4624431964353942
0.4348063151201589
0.41292427227348405
0.4031017216502149
0.40948224614075723
0.41412383563107663
0.40809994137093886
0.39006648828159307
0.39869329801700726
0.4215502526213347
0.4505350923833372
0.4640911906317745
0.6182672161172611
1.0
1.0
1.0
1.0
0.07915840007710662
0.0
0.0
0.39135916571414986
0.5107976729757183
0.4782239998075605
0.4941701375492942
0.5110339923373881
0.5336940442723705
0.5550255503261574
0.5734120195673654
0.5701576828288765
0.5781186024569293
0.5984700800362978
0.613812446707367
0.6046890268266145
0.6123028195744394
0.6516848205592586
0.7107385851480993
0.7310939219225598
0.7619938614525957
0.8075297644769481
0.8313417684291873
0.828829318077448
0.8292763980257842
0.8426547376470686
0.8434617125492878
0.838722124799717
0.8214365524810084
0.8130606760644584
0.821930401662115
0.8060495513973234
0.7524349443023597
0.699561589454295
0.6493479595599018
0.5868551238279636
0.5240391945677612
0.4833950848157419
0.48882252124908776
0.4777964816474592
0.45432212846164577
0.44631376337335293
0.47130259841587313
0.4739659291115669
0.46155239423672284
0.4690795291759661
0.49237419108800895
0.5004952637980097
0.49229964912560664
0.47379702439790794
0.479267711761861
0.48480726273757246
0.47144816095449427
0.4478441229210916
0.4468080434292732
0.4558805648397383
0.4471849942954318
0.41918911940217657
0.41415993244055427
0.4209598706137211
0.4145851347641198
0.39745455232471877
0.39955175757838124
0.4078673491127255
0.39681161864680564
0.37949301522290196
0.3912394553582466
0.4194729057265367
0.45443843174540205
0.4669458353033907
0.4849392684871229
0.5098319807045589
0.5033321165691086
0.4815572748012024
0.4539519945724992
0.4532749637336614
0.4220973120174015
0.38078930178475967
0.3472363660683221
0.33421714895690546
0.34796225335343917
0.33953450112117783
0.331189365956621
0.32229647333616196
0.3345338896254155
0.3431073365373261
0.341570736618248
0.35742527801825785
0.40900225702231213
0.43315430648628805
0.5994179418816653
0.9643817353698116
1.0
1.0
0.8745199302348666
0.0
0.0
0.0
0.2971389232725815
0.41510221215246473
0.444205149451906
0.4497557961115226
0.4409519520356027
0.4827821429563907
0.5172488379486924
0.5528421679479807
0.5951831880953057
0.6402559772839445
0.6710422237238702
0.7141882031512351
0.7240852563775836
0.7138315440484877
0.6988174818941465
0.7194849622826391
0.7366828426718303
0.7288734430798651
0.7435905085903416
0.7793608286351207
0.7950089410273427
0.8292726475895691
0.8604017526960235
0.9030774912284649
0.9403521823312533
0.9357241339901006
0.9181297634140779
0.8910763016031027
0.8466004903851074
0.7748238702369221
0.7036509772259072
0.6555962662814754
0.6158567750275814
0.5786728068875011
0.536168824102689
0.5113019731617386
0.5139657111619748
0.5091006337151897
0.49061263382166975
0.48834195870382324
0.4979204303275321
0.4990356160940176
0.49119275927751505
0.4965869707509225
0.5201680379163915
0.5223171736380502
0.5162959289042295
0.5047173958424443
0.5187126534062199
0.5206748847262279
0.5000776838268431
0.48346643129953754
0.4718267994660564
0.4702816467292289
0.4622806464313255
0.4672081517512692
0.4636709842963825
0.48878970883986217
0.4947768862523388
0.5033730890642607
0.5431927779963448
0.6001103314775559
0.6289975787503936
0.6229625806618416
0.6017153167495457
0.6162417212807132
0.630270598492009
0.5979242813676139
0.5662608664612074
0.5556514012165811
0.528616724176264
0.47602058163582556
0.44967004907786634
0.4511719296691961
0.4635223755380853
0.45274879649528277
0.4401065336201416
0.4399301002306242
0.43927719360280265
0.41069307587327597
0.4139175584647175
0.5200792425855638
0.8680623981462764
1.0
1.0
1.0
0.1495174467262732
0.0
0.0
0.2650426635806299
0.4227824898341644
0.42644369111380165
0.418883649298634
0.44199312067930274
0.4666328818690778
0.4977282918356538
0.5073403134117273
0.5089377371959004
0.5308052247611146
0.5640467823505135
0.5790497856593143
0.592203603882394
0.6263222373851516
0.6780893796338388
0.7048074769752409
0.7115915133603878
0.7378320285378923
0.7846631083341968
0.8118624216721525
0.8292803280108163
0.8540611731289797
0.8787446422966431
0.8798793819507219
0.8667216240570227
0.8620974246474965
0.8702184415481268
0.8688692513828812
0.8284517505273371
0.790461122300018
0.7454335630669989
0.6952687074032446
0.6343733554469451
0.5789515922166987
0.5544806780531671
0.5387882740565111
0.5114410580989697
0.48879590900955083
0.5046293491820116
0.5113071919601283
0.4958314277263505
0.4956071943629611
0.5011417569187756
0.5165595607569993
0.5176706523093639
0.5154209315833436
0.5194296559419385
0.5326641533195756
0.5158636115921198
0.49259145394619636
0.4769242367902008
0.4856839164535952
0.4709523397202246
0.44488845446284236
0.43247119947688245
0.447034656772502
0.4469608259271351
0.43667294552432107
0.43211894035163423
0.4778972981837694
0.5294092354535291
0.5611349725024878
0.5713786135749178
0.6063089013842287
0.6621700091594113
0.6371576662794565
0.5644784115072008
0.5404756557992956
0.5346729953519682
0.5087257052714452
0.4816979937294721
0.45852157960198064
0.43901575630506706
0.44168730737470663
0.43123355043175743
0.4245869900508302
0.41076649144710425
0.41212182228615524
0.4287102183567383
0.4466204276006078
0.47545557077992157
0.5062853807995527
0.5245463072200478
0.6288547745914947
0.9750513476522851
1.0
1.0
1.0
0.32330269164097697
0.0
0.0
0.34258878072644566
0.544969716607248
0.5493034994808031
0.5349424834118488
0.5379798839714046
0.5454054170669974
0.5584235483151663
0.5721228402378902
0.578047318232231
0.5765351317895839
0.6217289163586321
0.6503620289731821
0.6608662875164795
0.6808632604975223
0.7153075511282001
0.7402339732596384
0.7478404635762148
0.7465504707131159
0.7695946615860473
0.7977040161817007
0.8097354431418221
0.805333924482397
0.819542352750138
0.8390268937264939
0.8331396024235079
0.817540051337259
0.796488807945861
0.7695096654310312
0.7157446945261706
0.6472602271441433
0.5721629523195817
0.522702685720285
0.491820501414062
0.4740360703396031
0.4564134478817693
0.46159426206105236
0.4702237668544706
0.485956699357721
0.501506375832899
0.5394010715768955
0.5647682757719574
0.5712984874386371
0.5658987829186594
0.572516925068973
0.5860935247069793
0.5815219278851236
0.5497166990386991
0.5445712464926162
0.5412263018308515
0.5007576676291474
0.4375145122404843
0.404510006020092
0.40069439291145786
0.3844306926899847
0.34957004991286467
0.3613912069417354
0.4087516383322628
0.4346144990060329
0.4370778518428221
0.43656407553209825
0.4509933524581534
0.4471959738913448
0.41737125928698465
0.4108599134128565
0.411887899850389
0.38341147304799006
0.35983107778928836
0.3340041317894764
0.31549135811475393
0.31944648137119397
0.31217153980734114
0.31338120126915364
0.31953743321655015
0.33810412331210105
0.3494533522115937
0.3553920817142469
0.36952812594222517
0.4029255893351785
0.42552849931169934
0.50889860560271
0.7774598604713553
1.0
1.0
1.0
0.5123420920149016
0.0
0.0
0.18643609538270073
0.4243378712223972
0.4521459394252477
0.43256866410079836
0.44188513224652876
0.44990415891742686
0.4562670482631452
0.48556921490747407
0.5053245137466394
0.5072999609723663
0.5248765731711943
0.5545183695670726
0.5776929759927463
0.580448239145982
0.6025350937724449
0.6355762898298873
0.6654850823346632
0.6694645848234739
0.696778399828322
0.739421797790587
0.784598842975741
0.7948583646509211
0.8062260805399944
0.8177000981255336
0.8212707768601282
0.7992569322571983
0.7807132326318452
0.7673494425357497
0.7330938350142843
0.6726239165204508
0.6147296910726702
0.5626701584025845
0.5244622628105773
0.48131732963748125
0.45609226307818895
0.46321125008492564
0.47792292966179384
0.48721172989124656
0.4858191573897561
0.4834626555864462
0.49762150328908605
0.4968212852992905
0.4700636906246857
0.4687702387491169
0.494280404817298
0.506840968157184
0.5004245832648696
0.49459135217777916
0.49759555724624704
0.48858428347536415
0.47446529746124966
0.4565892480467998
0.43708723583310133
0.4484107206803163
0.4524373613597895
0.4638757002913668
0.4943726902174029
0.5269804712235068
0.5384641798349111
0.5466578787621994
0.5859621100208032
0.5939872783207699
0.5582399752497438
0.528587632195167
0.49075087435360737
0.4722652957679635
0.4725504255638967
0.4526088891480102
0.42345518698530016
0.4394385790904507
0.4425111026106688
0.4255096014145742
0.41975661068226966
0.4361645437577816
0.4358214305276086
0.41195032949032573
0.4173979279174004
0.4421828130824695
0.46812508941489706
0.6231305894982827
0.9929693779176182
1.0
1.0
0.9448361147432578
0.0
0.0
0.05355833726010362
0.3858875453325231
0.4268687558096353
0.4086913712781578
0.43855722409509407
0.456225016022595
0.4589023978770834
0.4687468136139731
0.4928990898163142
0.507812922645429
0.5025009651468666
0.5021539951457636
0.5333019510196638
0.5644443069986105
0.5698632334797505
0.5861953356326629
0.6359385165959832
0.6796205046144115
0.7000508576474551
0.7345704828869912
0.8007665342878296
0.8298932244791528
0.8574423821518117
0.8653323687944445
0.8872338108389988
0.9077923738609524
0.9043849892901538
0.8684367926858332
0.8382412446585003
0.8232178634992795
0.7653531446007036
0.6768328603084095
0.596181023770485
0.530101021717809
0.48420998856335384
0.4445550272268736
0.42478516248455644
0.4360677352488459
0.4401558031122483
0.4386994032915201
0.43650314566445686
0.44112760101368875
0.4544211703177637
0.4500352205612961
0.4675051117010625
0.4701577544245046
0.4733152168807341
0.43991260958583284
0.4005380724204885
0.3829996832552234
0.3690763794229386
0.3481045360611942
0.3375544132411087
0.34701953517206924
0.36405894524796995
0.38097314725572334
0.40693866832994285
0.4463418014016886
0.4852367283770267
0.517760941008597
0.5427111079154436
0.5313708659659104
0.5114949663119435
0.49635212944212703
0.4738086214742152
0.44041526209697934
0.4254898560778576
0.41714197418686094
0.3813875933910074
0.36305181190550295
0.37054090981578786
0.37184999259342616
0.36380438161162837
0.35966291187460503
0.3651921070867
0.3720789030267676
0.38286618313114956
0.3964212929719913
0.4157064399177945
0.5147788048335976
0.790180404726172
1.0
1.0
1.0
0.30085036874581084
0.0
0.0
0.3093258840442631
0.4578747820747885
0.43698012287922194
0.41606688931519253
0.43953946397229887
0.44827033408149103
0.4536176643824466
0.45572264633155657
0.48147038451791274
0.5035990903162282
0.5119965562275275
0.5202647802343766
0.5434726626587846
0.5709434688489938
0.595202273652458
0.611315939623042
0.6359612526231821
0.6825529965092535
0.7245760465893026
0.751782302609436
0.7781970825460454
0.8128028542706286
0.8131575171872184
0.7921491436403831
0.791505526647146
0.7931520695289723
0.7776225830111108
0.7456776765056382
0.7162477313474982
0.685038421901106
0.6351085886691925
0.5929586025690443
0.5674404505594755
0.5253747498518784
0.5055672931490297
0.4917856854532143
0.4672784083447863
0.475106156228274
0.4843880906741177
0.49801318214149165
0.49976634230044087
0.5149480674120467
0.5312857901803631
0.5309995246287587
0.5165719329734008
0.5100602092126778
0.5190157162009832
0.5251251491880795
0.5175708174558047
0.5000220136866289
0.5099020119509818
0.49338110394719514
0.4700348769485722
0.45071036566353806
0.4524716209198904
0.46506106308956435
0.4669014469971019
0.48186732761566214
0.48886403328206873
0.5230595580458182
0.5367188086516647
0.5215895196149753
0.49681075676420905
0.49514435126994016
0.4816860111894849
0.4467778292887844
0.42218304199465806
0.41942410587426543
0.38521387177887323
0.36627370514163216
0.36881165669107674
0.39101501404979244
0.3945106776285934
0.3827097020654181
0.37724526372483436
0.39234866973608706
0.40159796128423864
0.40131281898159077
0.4108046415497613
0.5250921504562507
0.8555083258595648
1.0
1.0
1.0
0.18111263356755888
0.0
0.0
0.3307648567949343
0.48427591068352865
0.47122812218640336
0.4671625594940611
0.49751926303592847
0.5258595897764551
0.5443523845206586
0.5554986385341507
0.5735130963008341
0.5868165921765268
0.6032147995614333
0.5979788701458256
0.5814517076440204
0.593235220443784
0.6022358731809796
0.5826420322536988
0.5661714361374703
0.5689984003798733
0.5820820407048315
0.6029001741799476
0.6369562743302495
0.6749407824800143
0.6960527775640578
0.6891296466810037
0.6906588404954521
0.6947929342312937
0.7002954531656783
0.6868545059484548
0.6520795935585217
0.5969075694394723
0.5591287689277389
0.5130926172807709
0.4579972248637486
0.4213231452961016
0.4159140447783266
0.4127714673438502
0.41427590964917893
0.41914096559510544
0.43407771183016586
0.45306920147942886
0.45295452426899246
0.44888339414541134
0.46938551429054803
0.4841045699488881
0.4829261135297405
0.4653886131442352
0.46726011210998053
0.46939553781478843
0.4608179775124969
0.43806186161010113
0.4304917741247169
0.43369251535206715
0.43068970661187206
0.413015835005692
0.4084379427579151
0.4156311682523879
0.4203172421460281
0.40886901148971333
0.42301318957174744
0.4620435541503559
0.5042175253176225
0.5152557010040215
0.5323886729909268
0.5517475435088155
0.5576386637543277
0.5131583159835127
0.494850528973726
0.47683687862215285
0.44890344880335525
0.4285962200133019
0.3892443749690592
0.3602530785869852
0.36968735777444883
0.36908845292395875
0.34893761967260656
0.3475022100260105
0.366770599561771
0.3671986572188734
0.37439481339153824
0.38251991983653927
0.40618230119280013
0.43682066627937177
0.5928814487073397
0.952412537919044
1.0
1.0
0.8357520999100252
0.0
0.0
0.06201648918912248
0.42118765253922996
0.459168127271289
0.42665202731091956
0.43405448411743147
0.44061831897158454
0.44458744349135887
0.4628452007263088
0.4932937311473367
0.512254530475541
0.5143816221417314
0.5294403680002103
0.5589124470353288
0.567974801903643
0.5816302654196341
0.593023267747935
0.6160488653504224
0.6517824021835372
0.6707956988919184
0.6918735809292711
0.7438595614358925
0.7888036136696774
0.7980545745933684
0.8049372530461898
0.8280185432540899
0.8417121940692178
0.8263336671836669
0.8013435903229921
0.7940523419532881
0.7701823041755896
0.7165583012934451
0.6588182022994761
0.6029111009646642
0.5622381142650505
0.5194304422345625
0.4805607646865793
0.4650225987592892
0.4743529894298052
0.4784869322572618
0.47097611134393846
0.4627093756530433
0.47829914400739887
0.47881419082226895
0.47045979893033063
0.46049245743503164
0.47167271194124794
0.470337217233336
0.462284096286775
0.4575339611435975
0.45710683480999076
0.4618622234063857
0.4531263431683252
0.4404798202139798
0.4426615361628043
0.4470277013296663
0.4399024474630835
0.42099374057772343
0.4161544518419874
0.42285714694117155
0.419843902645842
0.41077722124348826
0.407259004248981
0.4133409137509889
0.40394191201661594
0.4076489291537616
0.4251317632648397
0.45048184470988284
0.4694771979093634
0.47772983116246764
0.491725237485788
0.4948747443981131
0.4913515223825568
0.4662697477399179
0.4355771674144142
0.4309596809822828
0.42512989133147655
0.4017454910220445
0.38347384370663307
0.4076092359656115
0.42228804194714675
0.40784109393917556
0.4147343722672753
0.4172617979241705
0.42041125111102107
0.41787006668923665
0.41122081999957183
0.43397054715872424
0.619523976989522
0.9864251704764191
1.0
1.0
0.7627452645495891
0.0
0.0
0.12033821773403992
0.4054066854225168
0.43147233876215896
0.39106939639245175
0.39616642645897215
0.4059090841731071
0.4209886057678219
0.42016984553457765
0.42092275214458874
0.42857177447249056
0.45089656680139295
0.457456898302396
0.48702623415160035
0.5185104020407196
0.5641925020577275
0.5897389610515569
0.6088221913407675
0.6340601972091935
0.674742306800517
0.7009775522585787
0.7092442748340001
0.7182428982459461
0.7339882573482758
0.7540130920938559
0.7494629054619438
0.734507613073141
0.7375531955169021
0.7284797206781513
0.6916397507092439
0.6297102861524926
0.5875213158880048
0.5508836085193395
0.5097385344225349
0.47063549210515826
0.4589875390806905
0.45174330778360766
0.45096957177472036
0.44620821789148746
0.4494814049297843
0.46100026863484206
0.471730819840617
0.46868218792127436
0.4702075195881206
0.47600181485475834
0.4788108807883676
0.4693884841233338
0.463023689990001
0.4721098044897515
0.47617775521131855
0.4562590770061898
0.44456482753222437
0.44562276886049557
0.4381955070868345
0.4248525785940516
0.4222256841269408
0.42215919523900813
0.4170213531794479
0.400786330196396
0.38946665365545463
0.3802614058732754
0.38593464657267906
0.3812577127831608
0.3636035837459531
0.3748153110052282
0.38660637894985095
0.39547119530796687
0.4039407660837047
0.4332434922792639
0.46693698922324123
0.488602399789775
0.4982265052161889
0.49915367456528037
0.4960304522627646
0.49059665237012745
0.45122574750133976
0.42459643026600025
0.4119767986130296
0.4052792488769247
0.37405693662744677
0.36217299998651126
0.36946939567872955
0.3734625564285933
0.3678843940769747
0.359804484250812
0.37325488455818573
0.3865486264383057
0.39210793402621985
0.4056549228587908
0.4521419994993505
0.6218395971247096
0.9673906779558926
1.0
1.0
0.9325141832906694
0.0
0.0
0.09966629814796217
0.4524598542700254
0.5090026872567595
0.46542472996560835
0.4684859472607082
0.49519593907514475
0.5180788668430668
0.5178748952344561
0.532851240971864
0.5392355721793731
0.564040258753319
0.5909480700876433
0.5958589813798643
0.6174529035927502
0.6586775826128481
0.6692353865773875
0.6805766729338605
0.6988013728310846
0.724371124900782
0.7445885521430483
0.7513094635601305
0.7625363947660301
0.7686446410347648
0.7762364067501595
0.7746494617591001
0.7695800140389153
0.7819153765442556
0.7796032011375582
0.7525274596109173
0.704472273095327
0.6670501895015876
0.6180869385461684
0.5653467387901217
0.5254886972370729
0.4974109197248529
0.482274727425276
0.46726494495317505
0.4556626484222367
0.4538197875956814
0.4711898571107658
0.46895755148626384
0.45898301970888955
0.46730696868458554
0.49228805002845233
0.4927667935822778
0.48369108853273524
0.50033012895336
0.5142472454992467
0.5166202677510136
0.5079290333346802
0.49923661881522674
0.5049977015313984
0.515328615823493
0.5021535802200724
0.49196342995865666
0.4896332661800871
0.4831172387692398
0.4591380957039875
0.42663613933596184
0.434074601189712
0.4358687568669133
0.4284223683843652
0.4238133795043648
0.4163089115688175
0.4304957759878031
0.4365920939447861
0.4373597735362825
0.44792868892709653
0.4766307858292511
0.47489000695700057
0.45140716602910863
0.44653766516924254
0.44139380449100074
0.4182587321849408
0.40683158667212843
0.3813096682881884
0.3707987549249462
0.39246583774276966
0.40839412755223836
0.4126492267803917
0.4588063356622912
0.5004475534748352
0.5346011461656535
0.572959799537925
0.6445072450988854
0.7189503941660639
0.8237176150180835
1.0
1.0
1.0
1.0
0.43317141528548425
0.0
0.12447508499205787
0.44177843325546007
0.45268616356676583
0.4101356765185532
0.43484772263570093
0.44458346998177767
0.4388869951363028
0.44067013287452433
0.44524664560665217
0.44017226340821997
0.4407939953594998
0.4288453650506738
0.4373068079234034
0.4489188903172668
0.44444434997719917
0.4374189960533655
0.45419512846969656
0.4798998951229416
0.4899334349947996
0.48639550843438856
0.49267705974822046
0.5203489308755765
0.5344043330644396
0.5379993330141208
0.547963436726309
0.5743104600605718
0.5912613511372735
0.588176276277289
0.5764951611297465
0.5774981050980653
0.5663189035118247
0.5419849342374294
0.524238482377031
0.5225299891722589
0.520755424748232
0.49964642177499974
0.49249321787509254
0.5081579727304973
0.5172747648963311
0.515825874519936
0.5155738136360185
0.5179388025586233
0.5371787790550896
0.5401140031307143
0.526827125787751
0.5322366194912218
0.5441608652389073
0.5428888293966407
0.532941387048545
0.5269654138914754
0.5365529703181994
0.53877174279649
0.516341502942186
0.5136896773035694
0.5169925533127829
0.5041936634452198
0.48898038857498055
0.4869715925378245
0.5032232831113743
0.5167458031798594
0.5024774786955838
0.47634980555104256
0.47469360519279374
0.4686014867685553
0.46213357529038734
0.4728116859162027
0.48669047204099797
0.5206554205911121
0.5496453771407314
0.5560482659964724
0.5607249394071216
0.5752354732442189
0.5720608854210537
0.5605101253264403
0.549762169682005
0.5458637941576492
0.5419974280093562
0.5060886086887637
0.5007465977707584
0.5239726477302863
0.5486504968863462
0.5540304483644138
0.5580637081003883
0.5895592528816679
0.6355474313195819
0.678479414380549
0.7394181315035537
0.8240900789148222
0.9559680417050874
1.0
1.0
1.0
1.0
0.7148147247857141
0.0
0.06379421752980337
0.4774768501495347
0.5504547681200274
0.4840553552106511
0.48054249495618445
0.49412189394535366
0.5000221400961701
0.48694353431090864
0.4861958784865633
0.4849998822737812
0.48467378355796564
0.4707587504740928
0.45962088485612645
0.47162177034345304
0.4762553634329919
0.4698011560280045
0.47109081834150557
0.4939105219714885
0.5100860959100953
0.5062321947764454
0.5200716518781445
0.5416211555413948
0.5649402160015013
0.5760986157478742
0.5769473649947974
0.5882952134000659
0.6088574001094988
0.6180928607683425
0.6134735380726786
0.6031063597137226
0.612550934047066
0.5910206768873885
0.5550436348702095
0.5325844780776706
0.5221167136144383
0.5198071619396254
0.5038388134833096
0.49318958344470837
0.5075126091718192
0.5226964171547339
0.524759765157362
0.5249114726470925
0.5317656792566878
0.5508210983544666
0.5604624778614993
0.5488858603610216
0.5601416136575124
0.5767321773864548
0.5814894552616967
0.5716828720298724
0.5699379107263207
0.5741695973314838
0.5649852920937146
0.548738097362275
0.5469102595543196
0.5350384645881885
0.5303713922698129
0.5071898314957151
0.4758027694686714
0.4807196662445067
0.4945128081815768
0.487084541176651
0.47678395146354297
0.48650604108631307
0.5046697676077332
0.5032446879296296
0.49312059828794547
0.5030981712764754
0.525840200076125
0.5389139423762901
0.5574107406004648
0.5852096613865319
0.6316688004578824
0.6338970427853097
0.6175067202162406
0.5967227135549399
0.5831631045590632
0.5498421407293512
0.5041104426071151
0.4826853297432959
0.46162972602834385
0.4460346634567739
0.45664888052340746
0.47210315854765755
0.5110739698788175
0.5538985144592433
0.5923103047211085
0.6191656470598679
0.6744851732643924
0.7349146208355507
0.7983515519716669
0.8616108966365627
1.0
1.0
1.0
1.0
1.0
0.4204462459433101
0.0
0.12071660898892164
0.45033222252620114
0.49879730751872947
0.4483688021278766
0.44633072079051556
0.4535573392788483
0.470019174270362
0.4726261153369162
0.4648373904754175
0.4581696066873501
0.46599949679929153
0.4767287942896818
0.4612523980446774
0.45291426639880683
0.46885723687224934
0.48414917666774454
0.4731843373386687
0.4803301865402377
0.49688334679451307
0.5178881139852765
0.5207321631558763
0.5191805995763623
0.5374009645188578
0.571368368244406
0.584001161434316
0.5878651385349323
0.5934481913733208
0.6122415106609036
0.6368136391210663
0.6284440385132315
0.620766669669387
0.6082247565032658
0.594224021242114
0.5654089113124497
0.5412774069184654
0.5325462293314177
0.5266045288646694
0.5130511868944673
0.4942059923423187
0.5063636877603146
0.5166740463940716
0.508020043523899
0.5015864746891945
0.5108011401008637
0.5233488273877291
0.5191139860850883
0.516343518787713
0.5196827160360308
0.5289537446241315
0.5348494290071917
0.5168493034127675
0.5221197939953368
0.5266088678604122
0.5290136196339237
0.5237128744168853
0.513399473002637
0.5208440829726891
0.5110395405924094
0.49334753484069066
0.4769346326777545
0.4746419663097611
0.4740647021651331
0.47162212199255144
0.45610900731395204
0.45163847078606906
0.4560168722043894
0.44336308301869803
0.4378078605220095
0.4581755462636544
0.4796936859525383
0.5009194227413302
0.512460074009433
0.5448522298494392
0.5716668311693764
0.5613722865520792
0.5449580493372446
0.5401289411777146
0.533794512622242
0.5347182042704485
0.5306994592602736
0.5084324705628196
0.5221943558541178
0.5368329878678693
0.5464632324713065
0.5554176535398972
0.5812142784021479
0.6156800661794669
0.6530274126432338
0.7032245272497442
0.7954714424052423
0.8973399985221701
1.0
1.0
1.0
1.0
1.0
0.05994804611203728
0.0
0.32920948952612233
0.5572458246647047
0.47654922896916796
0.4308789357062162
0.46304598048799284
0.4697549462610121
0.45431169356149476
0.44579713971389073
0.45279090833569313
0.4548491129526549
0.44691605321627803
0.44381477329313157
0.46128462598565284
0.4745761233576659
0.48610113224771656
0.4915640965798997
0.5196117798681463
0.5420008306730029
0.5608036967974434
0.5595113411397813
0.5793302873227695
0.6019514476865206
0.6059755575284616
0.5964074870340834
0.6082350941212039
0.6205279554865976
0.6192643346480816
0.6015177673762633
0.5817658023061094
0.5638829232720619
0.5476276573914531
0.5224278237855966
0.4882797809723935
0.48954667468996493
0.4948596657073347
0.4915500065952509
0.4885191694297174
0.49587396270699136
0.5170357783372149
0.5190967904339444
0.5236522859271913
0.542284342228325
0.5582941399186513
0.562666018307463
0.5577847784518619
0.5639947317530545
0.5691304626453777
0.5569547363166318
0.5497720597642569
0.5471662377091636
0.552364377067649
0.5425447479206602
0.5055193663575505
0.4864484012623339
0.48288869579895605
0.4663644963019363
0.4426565237137197
0.43154307922987095
0.4396932432140961
0.4392233575243849
0.4319642834430198
0.42522468330855145
0.4368838519226834
0.44316516148464435
0.4369442098231353
0.4307703550661105
0.44000513020257703
0.4522083405490944
0.4719021709052469
0.4837584373758011
0.5247670803309996
0.5596414893478879
0.5715729456598964
0.553578185351155
0.544230261510839
0.5374404013780024
0.4933416915317827
0.45379250756514855
0.4365993568285639
0.40390275233622414
0.3920426357141938
0.39290430106053104
0.412071834719403
0.46218129638774147
0.5138670065284482
0.5508079358510016
0.6017037808703981
0.6723422120850624
0.773105228117891
0.8676380068415412
1.0
1.0
1.0
1.0
1.0
0.34607279716006695
0.0
0.14005963300708282
0.4780770506909809
0.48398945249279846
0.43667040851997985
0.4570962221209974
0.45114623417253713
0.45025608846240156
0.465036189006706
0.4665575985210036
0.45825147304144753
0.46969953422793004
0.4746972352509907
0.48387949092934246
0.47325916869336
0.4645731383501306
0.47463383089547984
0.49213300317799946
0.48928711118628126
0.4949039475552811
0.5223990408420276
0.5436172397018122
0.5423070846460679
0.5458058566091625
0.5607975861221587
0.5771642590576871
0.5976067615722667
0.6047417663738427
0.6148172088384437
0.6288799777957375
0.6101158382387041
0.5693061947515698
0.5350750495304641
0.5284612632122908
0.5225824713262635
0.5008331751122419
0.48777395561151654
0.4951893686823906
0.4976886023846675
0.4969407178735638
0.49093858497628134
0.5046369182966678
0.5186868219000387
0.5212260525526634
0.5080708344788749
0.5121166835912044
0.5261878177970298
0.5156232799776369
0.49862646819413775
0.4971775190703768
0.508765970768958
0.5026459589566976
0.4783300830987061
0.47709870923109293
0.4828329225553899
0.4810294963960365
0.4824884222087732
0.45565479230263967
0.47286621741499324
0.48596722095464157
0.4684243794934515
0.45415412055686416
0.4599680086660635
0.4643406806963612
0.4607832750590986
0.45118602291025417
0.47001199349591405
0.5131068716298758
0.5400727380561419
0.5616754007634234
0.5821486343149223
0.586257735214667
0.5751491726607943
0.5441704371278799
0.5107611133560003
0.47782689718936283
0.4781115489133013
0.4262503992066492
0.3941868397711554
0.4284643469441119
0.4527541398816465
0.4617897801291676
0.4900751270009274
0.5372008814717006
0.5917480252759119
0.6509512123479299
0.7254406180259606
0.8246919551041085
0.9635501815823165
1.0
1.0
1.0
1.0
0.9683201269322534
0.0
0.0
0.30677763187179663
0.4845717440022203
0.45569672734890504
0.43266051490490687
0.4618146340275208
0.4697079125918858
0.4593031172272594
0.4489071922132741
0.4747050632781974
0.47727197118793985
0.4648308388761027
0.4527067793315644
0.4765514647997927
0.4899570105004578
0.4761000186430522
0.46880389643623177
0.49239360597332704
0.5044909068292045
0.5016458954459833
0.5114187537455094
0.52694406901985
0.553681679292472
0.5627959614132376
0.558956461351188
0.5658311572276284
0.5877615692524317
0.6066600302603244
0.6089390661883968
0.6133571334763867
0.6252963233812193
0.6011389286577995
0.5650828400598991
0.5407981694108764
0.5283780265539167
0.5197912794799839
0.5089426948954988
0.4817771957299725
0.4977045113722068
0.511059905388558
0.5094045145690419
0.5061334501832818
0.5247737085192034
0.549454912618827
0.5376945753141192
0.5341308490679507
0.5450675873143063
0.556244733199599
0.5405369386118745
0.525546735854517
0.5220538604170963
0.5320427561974422
0.5209066042139248
0.5033143616025028
0.49333129875659154
0.5071369430630106
0.5093316919719102
0.48740675286979507
0.49092100316407417
0.4903909387215394
0.49477926029334435
0.4854199874452932
0.4697684520130122
0.477958461387582
0.4926494981292587
0.5017689227319317
0.5111404478681117
0.5509607460260113
0.5868786308636926
0.5966913789699779
0.5755654359902542
0.5598973388415328
0.5519595972484027
0.5185882962808166
0.47670481130600884
0.45907304354198086
0.4313169934403941
0.41761387238150965
0.42113483098880666
0.4323164863308856
0.43573764729228365
0.44806295579291133
0.4282887849024437
0.43739128372798364
0.4596462853102487
0.48564737481669307
0.48978324367462533
0.6070770017219418
1.0
1.0
1.0
1.0
0.13710785718611618
0.0
0.0
0.40744210005277515
0.5576266752357844
0.5226561157453217
0.5101733423690311
0.5033532449164799
0.511598021951707
0.537818355500378
0.552151050920583
0.549074921627796
0.5771161482904436
0.6136148707562372
0.6444493843141823
0.6586099254996147
0.694742127641982
0.730501891820458
0.7649340662457746
0.7696618458965996
0.7975287158050287
0.8383886270208272
0.8835223969145201
0.9130761915438121
0.9295656924739966
0.9375111671735986
0.9367243707152042
0.932279098211167
0.8961083976347067
0.8912677193614981
0.8965111172197526
0.8464748764813935
0.7992160700498326
0.7474614637767216
0.6946949258139629
0.6281708196031521
0.5730300129066817
0.5390470592118971
0.5243696758802978
0.512105613728272
0.5060701026690789
0.5056557505012306
0.5122295149362118
0.5081067503201289
0.5002050386325372
0.5094435358098857
0.5400924561401453
0.5511459663535472
0.5292239184543047
0.5219723997921231
0.5235525812842315
0.5263151093667713
0.5156183030749497
0.49584529194780524
0.4837185567165159
0.4898179645334054
0.49042682407178545
0.47552248580362716
0.4810731229529754
0.476850750866255
0.4658995662185177
0.46988420546391235
0.4743827353454543
0.4771190522340004
0.48016448958974356
0.46355488365512604
0.4450642573031455
0.4719472256844566
0.4899249416265684
0.5032281343253394
0.5232865904462674
0.5551403596460547
0.582628142138435
0.5662656574524991
0.542266224182411
0.5389928393235512
0.529560608535334
0.4874571078589778
0.4459491818346727
0.414219593003221
0.4206822198443171
0.4442819909083321
0.4130911822186656
0.41797928644724347
0.4493512241816521
0.4494517191812616
0.4422618025822528
0.425807526711308
0.4856711927908542
0.5409354884060641
0.728056244228804
1.0
1.0
1.0
0.8418302570386924
0.0
0.0
0.2674918415508413
0.5857140564757554
0.5419684400817576
0.5210116937744147
0.5706344505391406
0.5746464332755582
0.5777299246412905
0.5997702874424974
0.6439569002797122
0.6312559189052751
0.6410172632546001
0.6794744858102232
0.7071395338953257
0.7311127591772746
0.7572325229389651
0.7807593835365074
0.8255438894270769
0.8669271562114351
0.8919608592049115
0.913538281934288
0.9628284309897286
0.9836764879374815
0.9816778779941536
1.0
1.0
1.0
1.0
1.0
0.9994391782510068
0.945129785738466
0.8882250153011526
0.8096330795588875
0.7467576532260072
0.7176928265121353
0.6852651526748896
0.648179784560579
0.6424763455307267
0.6600727972468439
0.6582955643421432
0.6482512661893157
0.6523566593348598
0.6596629600390497
0.65906379700297
0.6399705607813388
0.6292408759811877
0.6394013992020262
0.6425147036580356
0.6300578429363674
0.6187568857032736
0.629201957170823
0.6347647064139084
0.601914709188524
0.5763588018034871
0.5699329129366706
0.5682735451280235
0.5479435246305939
0.5217782107176012
0.5300256518598541
0.541791785076849
0.5292872018570398
0.5040527275671478
0.49811510848679996
0.48832050121593307
0.4629565011309653
0.45313951673568625
0.4713907518902727
0.5158463165603604
0.5531653656981124
0.5612229882790652
0.5622098131515048
0.5555720456007525
0.5379655561072013
0.4911790438325697
0.44973042942219477
0.42672489696488247
0.4108991932176666
0.358331862909181
0.3261342557662935
0.33448693514310374
0.3415706848858081
0.33878819122012754
0.3208799100313275
0.3236040658417314
0.34693263350116477
0.35711327010870964
0.36170270332106397
0.38737681464782997
0.481117662489169
0.7963834111375043
1.0
1.0
1.0
0.8633963156154654
0.0
0.0
0.05295131524431627
0.4768563289944042
0.547382299904779
0.5328290582007571
0.5743190552729477
0.6125703341010313
0.6181366907400442
0.5924343398783736
0.5877781673487452
0.583941267320246
0.574900744091949
0.5710165627418581
0.5956186276687603
0.6377639342194522
0.6685733583127738
0.6718162778959391
0.718830238349554
0.7696609803363466
0.8070853479900725
0.8370288791108663
0.8899577310628534
0.9257370644352069
0.9525452895780584
0.9630763694153348
0.9559208610808885
0.9564835766771665
0.9445305697883285
0.92064757442207
0.8805150397062388
0.8543553344952365
0.8000078147030358
0.7233825341112583
0.6527925780909002
0.6013757740964634
0.5674250791481927
0.5289808589569243
0.5004523966670456
0.49015900650932814
0.4933751304730918
0.48752481767683686
0.47099235029683895
0.4637222777662027
0.4744677136194144
0.4569243430011879
0.4303524223826825
0.43435559252282474
0.44763016850670106
0.44622550844494047
0.4245336071021456
0.41769219371502686
0.43597677906161436
0.4463009388167616
0.4342048949592276
0.4304410201832452
0.43387694135288857
0.44013085617198183
0.429651045988638
0.4020320509971714
0.4084389197134762
0.4114244030950468
0.4111736483954062
0.38801757950381843
0.39606724489568557
0.42372502534827927
0.43508466473127383
0.4486986125925583
0.4809919499908567
0.5337529504789961
0.5742322627327646
0.5571060075715375
0.5280034968059371
0.5222811987886972
0.5106442743225471
0.4546368511043612
0.4162929370603373
0.4116870496374207
0.37750211613192397
0.3432131108448986
0.3513528648581605
0.36785262054515033
0.3856135190582531
0.3758267057572818
0.37447145744057025
0.39909888209687694
0.41884444032132534
0.42349133203025946
0.42219628260871006
0.4719227547145975
0.7517955486330163
1.0
1.0
1.0
0.6608445995277903
0.0
0.0
0.13134179310310806
0.45565510103318585
0.4858458612381368
0.44211742412078986
0.4526551099544352
0.48042170070681045
0.49593241858007425
0.4841484351646829
0.4826259025191413
0.4916335028412222
0.5212910357061218
0.5274688902196043
0.538502965562494
0.5699466846872803
0.6212555543701888
0.6403263952507129
0.6673643293763988
0.6973634580454657
0.7507406899392842
0.7901647714620295
0.8105931385416438
0.8346157884976538
0.8619892726260467
0.8763626491875577
0.8648784895579235
0.8487577532704134
0.8524702419389844
0.8490012532092754
0.8179282425260933
0.7742452320057089
0.738809214238579
0.6801906072632923
0.6043429018389894
0.538925727529701
0.5035959591122882
0.4807769129407977
0.4612127227147507
0.44619105923600727
0.46015323354246523
0.47858526861162015
0.48374107987924403
0.4842519893523571
0.5025864808773249
0.518943297194308
0.5282599254037588
0.5179164774267042
0.5192979056839381
0.5329356158164291
0.544057752490541
0.518915636698211
0.5039615420361516
0.5071945487394022
0.49469689696505387
0.4770213587149613
0.45923631378888263
0.46491631243815046
0.4668765877089954
0.4525931443381518
0.4412169082681414
0.4470946187600398
0.44750305038310917
0.4440788673679589
0.4265756158074847
0.4227349546303481
0.4263217520109322
0.42818694942361546
0.41758139962068147
0.4269316591835782
0.48172609340932293
0.5172705943939246
0.5482714368868196
0.5600784799477301
0.5718034913036444
0.5612469134061773
0.5484948054935018
0.4983824717787205
0.47858929000590367
0.47291217963870275
0.4315332309705927
0.3998330587816404
0.4223969171462122
0.4398939748022953
0.44100654473041734
0.425830210370003
0.4325619522024359
0.45096295705341943
0.44964804161408223
0.438008762026899
0.4707267914814269
0.5547173757096907
0.7997488847781143
1.0
1.0
1.0
0.7928243320188539
0.0
0.0
0.331752842808623
0.5940368087058004
0.5618139956317115
0.5331933254061774
0.5643829537860034
0.5849431581768207
0.5802122387426165
0.584617101299271
0.6156872034555516
0.6423013751909386
0.6558701274034677
0.6702856003941904
0.7039022651622822
0.7466873107273925
0.7689186456389276
0.7997727319086119
0.844581543151927
0.8819011276835156
0.8926945026446292
0.8927884688377968
0.905556033913647
0.9177860289309082
0.9223779973942005
0.9048927350403584
0.8879745760352744
0.8877317743533828
0.8684996137323411
0.8320740338617121
0.785160277213362
0.7415651633706505
0.6957709871848442
0.6189249823201208
0.5640503708035067
0.5368085697353226
0.5146921686791173
0.48686981765825604
0.4618421466074617
0.4655044983841054
0.4861666035370475
0.47690904845140175
0.47135277617306465
0.48457314446690214
0.5041559053307848
0.5120229770665927
0.5046858968627296
0.5049714466143375
0.5243944325741229
0.5337765404819343
0.5255887967800158
0.5282932656455572
0.5574847390350095
0.5655483733761062
0.5424494705512656
0.5374483561719089
0.5396484808829408
0.5387581900998716
0.5249872910194413
0.5113101730890726
0.5040305205494129
0.4879377103113097
0.4610008195690277
0.42648563079548796
0.42211436078286785
0.43998042271205096
0.42089752479837744
0.3973895089690579
0.3891824698595546
0.3978028835417617
0.4033844161339098
0.4070816788376449
0.43261347434669134
0.47595344050035415
0.5138157038565163
0.5100825894000823
0.4786895843781632
0.46576141804425664
0.45499477610767397
0.39337943703310047
0.35419064947586465
0.3471286947838793
0.3173345658469124
0.2763260742624519
0.26303547986469356
0.28048519938947425
0.3025568016532473
0.30110158280503246
0.3137968932475883
0.34115481733143105
0.3888556039984719
0.42631035602030776
0.4730050088665204
0.5927560156357289
0.8695122640032004
1.0
1.0
1.0
0.5835486095893174
0.0
0.0
0.12039035829254718
0.3768711133284261
0.44596956691558276
0.4368208640773785
0.44261702777129075
0.47047960060697
0.5036904301886752
0.5187031610863289
0.5386066437970282
0.5662778559813
0.607342570083252
0.6172907814917641
0.635403176937539
0.6708058088886659
0.7114019793944419
0.7319288532853485
0.7545978870551378
0.7956629550699725
0.8455965823146545
0.8794546276358789
0.8961731457867088
0.9263944726173925
0.9556302963673982
0.9659071791618453
0.9612822548798942
0.9480641849805249
0.9413868535474815
0.9327601271929401
0.8793362935232887
0.8072673039804901
0.7469867237672985
0.6854672026579077
0.6020913664636248
0.5439341527746049
0.5401016794129971
0.5379461219538224
0.5330947207729473
0.5313047860470431
0.5408825841992833
0.5714483627707718
0.5701199558089016
0.5660973755894754
0.5763096026274684
0.5918082861516476
0.579011303368573
0.5445867472980928
0.5389144963525137
0.5525089053238534
0.5483824594766732
0.531336107561416
0.5244004722437494
0.5254132605932846
0.5251419685458704
0.5029486971510857
0.47841460089366084
0.4835813524002435
0.4807896589927001
0.46923061026089485
0.45744617206601246
0.4669411968682528
0.47311488327837276
0.4918541396308152
0.5005968491224246
0.5067334214385258
0.5316177222354291
0.5318887199209617
0.5291097398010487
0.5266286984864635
0.5824312861853269
0.6268891253217845
0.6411165454224113
0.66417220399672
0.6776922801284674
0.6560085089647205
0.6235153895531305
0.5772918196944359
0.5520794314899822
0.513950870552307
0.47490675361812934
0.42356432656186715
0.42745557574713294
0.43912580647748367
0.4333032053456768
0.41349101625986223
0.4301787583514187
0.449400494994533
0.4449480100629886
0.44562453141131775
0.4709354370025056
0.5379697821425227
0.7905337273383101
1.0
1.0
1.0
0.8681215421864072
0.0
0.0
0.1574768932629766
0.49937238916762194
0.4777642618612168
0.4496234616702868
0.4927227532793982
0.5250702940433033
0.5356577047657074
0.536888175650311
0.5791729672003503
0.6009250621977317
0.6067544506189365
0.5995903686733246
0.6544824825179395
0.7078419969637292
0.7321721626652622
0.7403269723215615
0.8025229198466846
0.866410085962638
0.9007755319940177
0.9268737245171866
0.9768903289463818
1.0
1.0
0.9993601842839819
0.9493211788788771
0.9130428566811336
0.8765123651352089
0.8087306530966923
0.7337700498666835
0.6717220357496192
0.6140005040311501
0.542081854231079
0.48509153879074535
0.4543720218336877
0.43300332111124995
0.4078587635637064
0.41319470681899917
0.42261577960976826
0.4495074380390623
0.4505011588159241
0.43429225172765484
0.4340821561663913
0.454992969501435
0.45321569807137435
0.4328532207909831
0.43596084894367204
0.4519391152560022
0.46071274334092066
0.45319030492414897
0.45099550959657286
0.47136921651007785
0.4811267656003168
0.4590517836319097
0.45903990275711637
0.4681629270351326
0.4668464300952989
0.44354001785648506
0.4325182205558414
0.4384214179548841
0.43944204681878746
0.41609381647346977
0.3981542687960145
0.4195437488612182
0.4256069286747789
0.4132475275591682
0.4076375618137303
0.432728002399311
0.44139868167982027
0.43982360448715774
0.4535899086886025
0.48361827774303867
0.5316411783544985
0.5735880259430287
0.5820829961736174
0.5676879450833495
0.5720991492546708
0.5695969214228432
0.5207177085978163
0.4731493615211037
0.47812807363763643
0.4544045293352575
0.40285379687650397
0.38556582783132604
0.42581229160617473
0.46936304574871446
0.49232010075743615
0.5186575494380607
0.5698380687400189
0.6428362095651625
0.7162044991866936
0.8015309249572408
0.9612756893236638
1.0
1.0
1.0
1.0
1.0
0.06308929242887026
0.0
0.07016359341653056
0.40228552602362455
0.423078606186338
0.3843121688159057
0.3955864003857914
0.4205964491436364
0.4358135868720283
0.4174538631767041
0.4057184871858153
0.40827077055060873
0.4074781790694028
0.3906193475358336
0.3907201939308027
0.40745856822264737
0.4416899381956008
0.44259196887906055
0.4326211478958257
0.43811767177244904
0.46475196318208933
0.469227958757856
0.4692704424119027
0.4945379839413028
0.5415647570509385
0.5664238469590497
0.5740823057914984
0.5887646168404255
0.6408752581408175
0.6716662704248598
0.6872448577120888
0.6948828663576492
0.6903156760444705
0.6568502667661124
0.623676289417759
0.5783881829101757
0.5515948146504072
0.5344200796781154
0.5131593572805995
0.4767584325976514
0.4602280260694567
0.47850246294393683
0.4815607099886092
0.4758801251165979
0.47753717203081736
0.5099384206472448
0.5231946177795831
0.5097408260349627
0.5019290558963458
0.5291328745587842
0.5288700096733511
0.515210907906422
0.5115303114605716
0.5163482733606817
0.5004606301999235
0.4744373102067013
0.4432992599036605
0.4443388609893092
0.4415533204285004
0.4207999472112164
0.3992593732978975
0.4151757205842232
0.42371889452438555
0.42003399828612986
0.3973036944573813
0.40658914063672763
0.4232529075253244
0.41790240121746514
0.40138858365249835
0.40088954788390285
0.40617511238918425
0.41210060346942107
0.4112887053721721
0.4293743527849448
0.4766525032202601
0.5165395107249687
0.5385981190601676
0.5425068652710902
0.559114607994511
0.5788171573123603
0.571384689886012
0.5446600672671813
0.5641334369200977
0.5593980556830084
0.508684856294645
0.5021150290990615
0.5364440842673812
0.565007141595598
0.5864041093104193
0.6043129973795331
0.6440202678832966
0.6916625058745923
0.7196463948511752
0.7719610206747294
0.8528302399402905
1.0
1.0
1.0
1.0
1.0
1.0
0.0
0.0
0.20159444059381734
0.42737077755186315
0.4267984507643236
0.39388717035095155
0.42215453817429227
0.4427067196697602
0.42685197354942994
0.3965674978798409
0.37384759461089356
0.36571130198219315
0.34455304069071024
0.2995480429051971
0.28654095565628873
0.30765808821448937
0.3257720626031011
0.33273758815174853
0.3579991772901912
0.4082975396545353
0.4521948073791001
0.48975699376076764
0.5154889826711205
0.5612802998887946
0.5890947791114183
0.5905479750763728
0.60641541373999
0.6347362619784196
0.6481221813835789
0.6438236364338167
0.634295529937435
0.6236805805917639
0.5948196583808795
0.5421997405791124
0.4963883457823918
0.48373500601130975
0.4787553403217541
0.4800811091620174
0.4752615272590225
0.478890521893273
0.5060028694000983
0.5191648248759805
0.5059023724690513
0.5151972642515121
0.5387842749008859
0.5404023423897559
0.5130922875512931
0.49987453740188953
0.5114661601968932
0.5132458293150183
0.4877472391703157
0.4795628526958707
0.48935798711986267
0.4939356197520072
0.4753522904809973
0.45212843915530776
0.45974465752415616
0.46892013249200704
0.445228074769068
0.41352020119419725
0.4191015948133973
0.43323439809860476
0.43179506871614803
0.4337394364579167
0.4445778225672853
0.45160014840102614
0.4535999697621464
0.4354999034642857
0.44249450802732115
0.4611955727662343
0.4718120093827043
0.4845372604782
0.5019733194584685
0.5441918347958492
0.5799418218994018
0.575926333169142
0.5600723501819862
0.5448790277312552
0.527581843815882
0.48259142428890167
0.4786009958469779
0.4592110364710619
0.42163885982063637
0.4225851529727267
0.4524777236403835
0.4981447062777032
0.5532022891135676
0.6014366276452134
0.6634290816613742
0.7418939747535079
0.860496264031186
0.9686901652993114
1.0
1.0
1.0
1.0
1.0
1.0
0.0
0.0
0.32185370991698264
0.5111148888661468
0.48265323721704656
0.4465939404609965
0.45684445134879403
0.4583093541358275
0.46653786491735927
0.4742723286136023
0.4780421628991566
0.47451371225950334
0.4863596003246009
0.4986325020351107
0.49367744212439
0.47613210152904994
0.47654646014469054
0.46605223781293026
0.45458783133214214
0.4384354563954167
0.43549215007885156
0.4565095177689037
0.4794358392826525
0.4823139157464037
0.5035727644979273
0.5182165009277162
0.5419896791761294
0.5632278045083262
0.5709076519373084
0.6046360072012037
0.626130921432892
0.6040751054099796
0.5509844477377941
0.5324135864617221
0.5347074806345725
0.5074988257336502
0.48890348002008305
0.49389219784414273
0.50254163507848
0.4955297405734352
0.48749826432795695
0.5048013641497809
0.5513586298950307
0.5768941384408159
0.5888686034475421
0.6093283021981591
0.634526483655988
0.6514576452787636
0.655464827815142
0.642477204034092
0.6387375764021974
0.6239260729841473
0.5849462543955396
0.5436879372008707
0.5155882213140096
0.501632306930013
0.48291174330916364
0.46108495354126333
0.46333555708871926
0.47950774711562894
0.47189709849377914
0.44470739597871256
0.4566472514303495
0.4616626734299155
0.45275938195123694
0.45159358786504133
0.4470644049644653
0.47607820406268164
0.4929000326878234
0.48779026136092885
0.5099003221216728
0.5324112661324911
0.5448191650753708
0.5012133193336016
0.44834145704930606
0.43632095338449445
0.4174779040143487
0.3577796586986735
0.3757435239209519
0.38973263638504807
0.38919550436450395
0.4046261278276143
0.4582867164278709
0.5122409806029508
0.573198209153042
0.6081094870892252
0.6534253185534926
0.7121273153660941
0.8323450001426822
0.9386744205386883
1.0
1.0
1.0
1.0
1.0
0.3923628095629483
0.0
0.04107940196387796
0.48913061988122764
0.502550171160917
0.4485438737561287
0.4800885120145546
0.4800395667338308
0.4681523739017367
0.4733225837042358
0.49110499646359607
0.4776395094459521
0.4695105000505566
0.4747199189405308
0.48373832936213723
0.48856229117634414
0.4810787551766326
0.4832703078034243
0.49732060755048807
0.512663649163673
0.526694344876938
0.5608248705680909
0.5812438640779225
0.5941996565848565
0.596333205804842
0.6072885372005639
0.6338912147325245
0.6523556726903446
0.6561654537293451
0.6667771380048045
0.679111412888114
0.6531577378547422
0.611452674975863
0.5978567148403124
0.5915549929281414
0.5817364531313198
0.5486484427656383
0.5295415434241229
0.5445418728316116
0.5561072176411941
0.5673901138199747
0.5796576734527251
0.5881281600020567
0.6075652659240367
0.6151756192550992
0.5956735602638971
0.5997444438261497
0.6148482565609626
0.6192656958503087
0.589947597495092
0.5832535262244619
0.5865654782297531
0.5770795125488483
0.5605799062761403
0.5540516675738626
0.570547441003752
0.5705722316651045
0.5579862497061441
0.52867112712304
0.5302399761739873
0.5413200106207039
0.5265858305052814
0.5089367947789971
0.5158470579957308
0.537399011592048
0.5270934495458526
0.5187082606377639
0.5442740331532032
0.569323906691465
0.5753366324184076
0.5913735424336568
0.6247965399958693
0.6434465125838389
0.6322554844833506
0.5936488729021555
0.5623263342929359
0.54380021975615
0.502896730335044
0.4816470388058411
0.4541763543994599
0.4338993178631602
0.46544569407596176
0.4834219785443862
0.5097164547262633
0.5470614334157465
0.6007427319711103
0.636527340210167
0.6755846887487562
0.7405678789473543
0.8524339638182813
0.9445258949816047
1.0
1.0
1.0
1.0
1.0
0.10962983795335277
0.0
0.12110876274828848
0.4656726510375185
0.4463938431346023
0.39387829063932556
0.4165886282558259
0.43026679907125776
0.4467473133562231
0.45528982769759685
0.47717492037560766
0.47714592522865973
0.47978815296801497
0.5092030469286767
0.5286058584885523
0.5126254567535898
0.49639906936196754
0.5085391914150348
0.5183867513704065
0.510040494220722
0.4971038890809877
0.4967573819262463
0.5035777222000716
0.5227145591444166
0.5296429633825923
0.5457198863916958
0.596090845684568
0.6179750143525056
0.6164699385431269
0.6286881983544645
0.6334215631169261
0.6225247497783907
0.5880727134551632
0.5348769137911472
0.5100155255438323
0.4867706057194606
0.4799239211011682
0.4569829734992383
0.47140012513850493
0.48475985167458857
0.4874408889086189
0.49191660195730097
0.5021880523747528
0.5141641270795451
0.5046886555074355
0.491561347311985
0.4819021648032519
0.4869686529915368
0.4769535433437772
0.4482530820185177
0.45177246856271225
0.4562194978625652
0.46282246361932966
0.446106214875689
0.44900282783327095
0.46955410469496683
0.4843606407011064
0.47613116507771186
0.47857888168126445
0.488780304335015
0.4856811015690584
0.4812304131531267
0.48200704268608796
0.48337012739663576
0.4787894833817197
0.46141250108543125
0.42758177329258784
0.44064773860512574
0.46806568005636456
0.48647304882745024
0.4850314234990081
0.5225683862058801
0.5760693138999925
0.5860336175110427
0.5558103487382983
0.5519499348754265
0.5465435410083901
0.5024013422241383
0.4774732671948912
0.45536574382307976
0.43272619958260233
0.4291927675724742
0.4446427308260136
0.45635014583754696
0.5142694618876437
0.5650727166041604
0.5960261047956837
0.6337937374742044
0.7081837632733696
0.8136359578519758
0.9083820065264365
1.0
1.0
1.0
1.0
1.0
1.0
0.0
0.0
0.1875832669095491
0.4447857059336629
0.4337623394512261
0.40113228805575857
0.40523676274530696
0.40650492230679147
0.4257602926636361
0.4303825064050112
0.41963450937380326
0.4088316834590187
0.4136094907843152
0.4230443324873455
0.41350423754169885
0.40042440112048255
0.41401475439039775
0.4237985703941374
0.42652849376583657
0.4307940830571123
0.4445662499888391
0.46688961899865167
0.4781238143834372
0.4764812762415194
0.49921806574498656
0.5305796302247452
0.5510264310882325
0.5527666579562144
0.5798491958631242
0.6177457390643264
0.6439271355365326
0.6224199939948261
0.6046399244210641
0.598084068786145
0.5795157806760235
0.5364445609832379
0.5056230442843466
0.5120149768982039
0.5084080767566996
0.4949024534956929
0.48144175527587196
0.49958268180600207
0.5057507711888155
0.4953263284634916
0.4928562437916642
0.5188226218333978
0.5326757144860973
0.5307323294234351
0.522550299113101
0.54760807364303
0.5484053033826555
0.5430253013678279
0.5121253061328761
0.49954108167804206
0.4994480847675195
0.4838802758142979
0.4553148933684022
0.43606652023625586
0.434241130037156
0.43540147402591983
0.4284537087244876
0.4404143321745577
0.46277523037376617
0.48262815168661133
0.4762784090771787
0.4947846283780989
0.53893053401921
0.5833955777721646
0.5979309266098135
0.5930216443432172
0.5819129269247936
0.5721515516867143
0.5407016030783819
0.48179579587398236
0.459347412677919
0.44591981069179704
0.4131417324390256
0.3950430847073515
0.42122117483072835
0.4807981021151024
0.5150972511471027
0.5458517391923012
0.5845012487177861
0.6574423182817908
0.7502872680352081
0.8290872750243439
0.9447697569805846
1.0
1.0
1.0
1.0
1.0
0.13656244644644486
0.0
0.24061206837173787
0.4902063440344116
0.4862749805465832
0.4615572283799989
0.4709887695477538
0.4775905862846296
0.5157116937148976
0.5184662093153165
0.5094439226857139
0.5073525217326534
0.5207698732416558
0.5190161572746895
0.5080241642376595
0.49414751371938914
0.48589607434612186
0.49646156315065176
0.4861977073279439
0.47256602534701164
0.4957552882093367
0.5210646908010576
0.5209413303933593
0.5446040187169552
0.5784811193222766
0.6087760305012866
0.619339213661665
0.621660938636793
0.6457149753638548
0.6621730226662702
0.6529440957249658
0.626867715797711
0.5937369004300395
0.5838122917720618
0.5595755470468328
0.5108002714007697
0.4844586878283996
0.48426097503090315
0.4746687297760273
0.4591006457301776
0.461245997637164
0.4868357366850177
0.5151541603559887
0.5147977843537488
0.512966132483937
0.5430986335345325
0.5468202120600962
0.5530599003575896
0.5468969392035433
0.5493539566369503
0.5613270201799061
0.5581078182346825
0.5429768979818588
0.5345517110559019
0.5385980778929018
0.5271173094379351
0.4899380711143701
0.49650275523420645
0.5141524777741924
0.5076800838811961
0.4900907406308418
0.48563937659580125
0.5000033455996784
0.5116294556501589
0.49787350523936824
0.4951111932730631
0.5095213894270421
0.5191773169751812
0.5219062792514875
0.5430632727911193
0.5922679709957086
0.6423385571017028
0.6483611467231662
0.6171326169499207
0.6106890700069494
0.6045508517914271
0.5424799351010631
0.5002255002566993
0.4962931182095362
0.48173699842695417
0.45386542960325116
0.4546969209192756
0.4706538488099186
0.5124179095499075
0.5563600684559982
0.5981554933275701
0.6267351210889013
0.7061385171778494
0.8001714281540229
0.8982024829791605
0.9955214186612575
1.0
1.0
1.0
1.0
1.0
0.3081444773916642
0.0
0.09601134733074215
0.47950013011672665
0.49850612863819094
0.4376082083600078
0.4455397998053015
0.4563327256074342
0.5011375179517863
0.5188522288587502
0.5382565881488195
0.5353687124764585
0.571009247928252
0.5580523840810877
0.42771145313574677
0.3861067419404116
0.4537755358299644
0.49038805583108414
0.5020558059509547
0.5094729628531478
0.5470316978980702
0.5905041693496449
0.5945690707047062
0.6172945155356779
0.6559199322982072
0.743828787061697
0.7658518518549368
0.748833816471891
0.721654805758267
0.7496195688523626
0.7569018931280298
0.6142108180752114
0.6401156883332938
0.6794669155421011
0.6597738315116377
0.6238867082891565
0.6166008001362763
0.6190352909563412
0.6340262597874785
0.6212206674988283
0.5657267080851276
0.5634773545966921
0.6179168444304951
0.6064004940713646
0.5960283190559041
0.6189881240395134
0.6378083826760499
0.638047130230482
0.6160687979684848
0.6144539659422333
0.6357846273104857
0.6168073240082628
0.5965803156734609
0.6018034030771243
0.6058831316104734
0.5889876174122123
0.577990517841171
0.5763776486071128
0.583545868042916
0.5640779239378239
0.5464974807143921
0.5470114888750246
0.5706334813095537
0.565926761368827
0.5654244671396396
0.5596628025487942
0.580455742855262
0.5991417873462637
0.5875594708099664
0.5869151528174104
0.6272716588337478
0.6555451829495313
0.6778803704221177
0.7027152609210006
0.714307421748895
0.720379522193649
0.694359630684478
0.6495366189741218
0.6172326650821898
0.6105391173191608
0.5815435509826076
0.537698974011206
0.5103292085042914
0.5324986265842452
0.5312232889747329
0.4995801885001578
0.499208985199728
0.5127738386562639
0.5174131097710104
0.512098094219076
0.5135337570878679
0.5381342464603571
0.6096084748042141
0.8839458528792499
1.0
1.0
1.0
0.988480997313929
0.0
0.0
0.09321431603445944
0.5099579533515325
0.5499140519695307
0.5176256448003789
0.5471423248495142
0.5681386829772526
0.5752061309563526
0.5889514229786135
0.6178107743801344
0.6252079682938557
0.604095732192944
0.6188944444827102
0.6573846218820582
0.6693296765865708
0.6824029789454629
0.7169370648724832
0.7711440892727444
0.7969159888748798
0.8505418234626548
0.8783070641085609
0.9434013907350968
0.9897087683958711
1.0
1.0
1.0
1.0
1.0
1.0
0.9836673631970296
0.9358132275078948
0.8651997515997909
0.7755969418481071
0.7114645366467555
0.6529664591064682
0.6031867015006285
0.5535234559827934
0.5263298329107566
0.5538939953646
0.5677966699493504
0.5463821579344884
0.5439003590303307
0.5546288585366552
0.568213030721407
0.5602600505680482
0.5566439453272594
0.5626762288522367
0.5619584473835756
0.5408348082023222
0.5228352910533302
0.5097495056673494
0.511371425295624
0.5005455780998537
0.46400775699477154
0.447489862074608
0.4612533417869974
0.44748830883707225
0.41688280577385495
0.4107815417382426
0.4232232884404971
0.4214665184484305
0.39919490526042356
0.40120648186015606
0.40812182121335355
0.40854946048714763
0.3950737548323714
0.4079407812659622
0.45221811930581407
0.5011370123743324
0.5218526415889879
0.5455673845859574
0.5547102529784332
0.5473600464376966
0.522189696906744
0.46341508670764037
0.4490257366534543
0.4264128971596078
0.3826086863895298
0.3448449577279512
0.3541167004777453
0.3760187416198688
0.3694984513809299
0.3595635783339313
0.3644062731608007
0.39882418821231
0.417012445305608
0.40851575765472753
0.433158137348798
0.5167614151130335
0.8047315326984774
1.0
1.0
1.0
0.8452433742475346
0.0
0.0
0.11732522565913679
0.4944851831320195
0.5013431267318698
0.464880102165756
0.5027758898012642
0.5378389754104546
0.5495065530060764
0.5429738342083152
0.569094925400996
0.5858313805708057
0.6060018978631007
0.6139276874872708
0.6485806644121319
0.6814455288013972
0.7164201968185395
0.7248432645708519
0.7573445845999249
0.8012441416595841
0.8394125801123689
0.8625325806832015
0.8981766990958319
0.9368754954519991
0.9621482431842108
0.9470918163047604
0.9466411157576026
0.9511316645319265
0.9457467808359855
0.9151115641049976
0.8642915689512236
0.8160740914253239
0.7561542064167942
0.6826654902039024
0.6090533770233376
0.5618324768089448
0.5470698167789461
0.5074063691073389
0.4960771795885339
0.4923000388243753
0.5040585262825518
0.5225152666588431
0.5062320072147819
0.5133967944548237
0.5337435586172062
0.5397406014306346
0.5375283273371494
0.5310863475585408
0.5329309702978462
0.5413998092360628
0.514494692940955
0.49424027420221
0.5092712370458532
0.5211754912208575
0.5016202996517494
0.4834489439880496
0.4932061908976876
0.49415730219924603
0.48747450007322507
0.4697641214552286
0.47192902889904786
0.49176456759759785
0.48829564992686675
0.47250393869393364
0.4747041655129979
0.47619539115664444
0.48452210545740393
0.461244824959409
0.48083783724392803
0.5217976743313957
0.5645482690914371
0.5849020279432943
0.6001030689822444
0.6045819743524825
0.5895395098756031
0.5586569227977547
0.5089544038498512
0.4763433014602785
0.47803150064400135
0.43112199239494065
0.38867413942040824
0.4007582116068943
0.4243457945396729
0.40642655369968955
0.3986659158530365
0.40000235246025906
0.4176257137349893
0.4244742733450334
0.42576369756924193
0.45235729116905904
0.5892003783794885
0.9540445697081642
1.0
1.0
1.0
0.47666304677474464
0.0
0.0
0.23347921082303244
0.5127309353189675
0.49501627742084314
0.46619993784692654
0.5074990134153278
0.5315782322938987
0.5352928250354262
0.5298455315335938
0.5304129217981122
0.5644383475650355
0.5769915538168884
0.5622821661865199
0.5952732381055076
0.6356383845411016
0.6613961745317709
0.6715418994831912
0.6991692764651806
0.7465601863478918
0.8020587140437971
0.8217486270177456
0.8528333851200237
0.8900903628115893
0.9177749981662486
0.9114946594475996
0.9051623895613299
0.8875467255132881
0.8814557382098404
0.847054555226799
0.8122708706910867
0.7734994404115525
0.7274427318189096
0.6538044616441484
0.5834495987474696
0.5354578412591502
0.5154231827291218
0.4886345520675263
0.46602173300185934
0.4673783331044129
0.49399513224614067
0.506693235898684
0.5016998277822942
0.5053115862734168
0.5446580045950198
0.5537391724450098
0.5363901970257843
0.5227816108707269
0.5380715686140282
0.5326361518094195
0.5168590640269007
0.5018844653765924
0.4962863714183282
0.5012415148677885
0.4864893564395973
0.4533651607753356
0.4513188948589191
0.4548648242985404
0.43513808365595424
0.4177207950501781
0.40736140382287056
0.4222068570544141
0.41845318913864615
0.40047850193012213
0.39954595642252183
0.4067856040654064
0.401180985857544
0.39111359089392217
0.3921440040187198
0.40745789692716883
0.4194140407320795
0.41946348126789196
0.4510905721961329
0.5054818196120132
0.5493609114621809
0.5733817371371549
0.5719939678600943
0.5529203406544777
0.5478269465229365
0.505426820470429
0.4525731209383144
0.44110131994207713
0.41276316515717343
0.37643999497289016
0.35764775715815816
0.3627918289892798
0.3635831133889543
0.36420267640144777
0.3583593447154831
0.36216292987234
0.3906442106873985
0.4103540236570489
0.42054877757586445
0.5168765476399055
0.8590611302566641
1.0
1.0
1.0
0.6066801668789374
0.0
0.0
0.1919700718925331
0.49472705152046687
0.4770715210281489
0.45169746319490656
0.4758126965566759
0.5041517864415328
0.5307662269747253
0.522337503589765
0.5170187828452216
0.5357738519869751
0.5598699267079212
0.565172748800563
0.5786957526421956
0.6206063836172075
0.6617764566427533
0.6818936464170502
0.6923591873323792
0.7253964598095501
0.7708007099076329
0.8014504087069907
0.8117065357683823
0.8207116567383987
0.8611674715968443
0.8651504676234485
0.853898609461007
0.834265026423348
0.826572884230971
0.8170485316979228
0.7922924354173467
0.7317611615846354
0.6843178248414775
0.6472834530865816
0.5957017743203817
0.5319419478503086
0.49286147956358606
0.49591111982823516
0.48558463885982295
0.45710065074744843
0.4496216419920058
0.47704467631402636
0.4753173005483865
0.45877312828288774
0.45380719112998397
0.4617327449008267
0.46442123062811397
0.4393734152189734
0.39409576047008865
0.39767028233612206
0.4141413270014535
0.4127818797233379
0.3925555800163636
0.4038374518591771
0.4072075499018933
0.39061346134204467
0.3751824819237396
0.3813014714796322
0.40361348889781057
0.395641530257899
0.3703299023769672
0.3727006348734866
0.38788779240757015
0.3893787482444593
0.3773160326367492
0.3665219013384836
0.38890670321104454
0.39675870736225527
0.378706938365667
0.37607465441698623
0.3941626503476249
0.40470445440411484
0.3868346741349432
0.36785021795242406
0.37463549666546686
0.37856035195809334
0.37200884927184796
0.3809653722052454
0.4165972068705087
0.4527074213690986
0.4856049499835482
0.48645515641744375
0.48135117264221183
0.4878800109603909
0.4588910905636411
0.4011315177609154
0.37632940374539
0.36463344917158513
0.325609990584085
0.30000771846662644
0.29637609150121486
0.33237596172616024
0.3296541320914512
0.31923729421168556
0.3165363198354431
0.3437402302778703
0.36501400611181484
0.36980647133784855
0.399112459682636
0.5743932924996836
1.0
1.0
1.0
1.0
0.0
0.0
0.0
0.3179109963418637
0.46924229355571667
0.42923396905907973
0.4210605983934836
0.4430895923119116
0.48227898943881087
0.47284187764501107
0.4711486767519911
0.48413991513029897
0.5199850296240752
0.5484930297531796
0.5552684146641169
0.56831214849786
0.6132610123394404
0.6462085668255316
0.6692175345009745
0.689924425292535
0.7385707697637105
0.796706852273106
0.8162857609514464
0.8338936141563783
0.8875335728079106
0.901996721142722
0.8761545664161952
0.8769084592319931
0.8794633797774483
0.8841059571273278
0.8648548863964267
0.819263240161975
0.7805181230234235
0.7283554338026323
0.6604786788324652
0.5728151847145488
0.5220709640211261
0.49544278612032294
0.48816749603522025
0.46870954789292013
0.47703211968113823
0.5017730205533992
0.5075560800830936
0.49629962580942877
0.5085170121654344
0.5134265259078805
0.5386380145352025
0.5370284177475495
0.5172440494697047
0.525870261769505
0.532787703144616
0.49964701428242153
0.46839624788457523
0.4705406917907604
0.47144911492192065
0.46104886110846294
0.4281279117646329
0.418739212435517
0.4243111834938545
0.42143248334564715
0.393759351183665
0.37351769291145887
0.36479142667037356
0.35743743722360877
0.342653845444129
0.3384288195465193
0.3537712413222186
0.36616715290884894
0.36536583754859386
0.363152401202938
0.3845144528002905
0.3967652760971127
0.3761123821557925
0.3658777472500899
0.38588686281521506
0.41580060973542377
0.42238350412367165
0.4375664454846159
0.48381543652344466
0.5383870269721024
0.5658118297540522
0.5386401889089385
0.5314108000140971
0.5247722322919066
0.4723184587637852
0.4373280209688196
0.4002112051960812
0.37051725861818285
0.35575803773619075
0.34453760258169996
0.33918764487114866
0.3478154048516739
0.3453234513441029
0.33033146157934085
0.33692156985196176
0.35898857303957304
0.3770999051932843
0.38962154694905987
0.47085919926864267
0.801424545593395
1.0
1.0
1.0
0.29499925472141414
0.0
0.0
0.17465231441957094
0.41568051572120596
0.46281993695638046
0.4594590559698397
0.4727828064867577
0.4857355621480305
0.5131294533551041
0.5275121123555161
0.5325668846050539
0.5287918544387333
0.5648848101925749
0.5908656617803445
0.6011091181925009
0.6168413195358242
0.6537291238501594
0.6917618526674277
0.701053670593785
0.7289232717247257
0.7667100444830499
0.81147882379931
0.8371966713747312
0.8487342035370415
0.8647554820943288
0.8867450771263139
0.881503458998915
0.8548229514328209
0.8421558649833012
0.8310669177182977
0.7954312716122807
0.7359349853891897
0.6840737108573663
0.6361040718447005
0.5846978901056971
0.5310302619609018
0.49008022729443423
0.48184898711371604
0.4776864978984854
0.4569637446701401
0.4456609566451991
0.44604278886010296
0.4659075181455329
0.4597049093294975
0.4542524096012247
0.4632538848002496
0.47424529245621905
0.47925791685897173
0.46680674018891244
0.48132862036513674
0.4865988265426858
0.48656765295027393
0.47332029113893637
0.4575113725052079
0.4633529956620526
0.47097628839429245
0.4598061772846461
0.4373205621278893
0.4460609566310675
0.4472284119205856
0.4263288741317887
0.4073165764938504
0.4261169344948888
0.42922975275639985
0.42534277238108514
0.4251441569571612
0.43282929825198374
0.4442834034688673
0.44439211382033567
0.43535763337848243
0.4458197366331992
0.4646692374658232
0.4540629240441437
0.4270543452345931
0.4372797502270351
0.4803715045497293
0.5021441648858537
0.5133918616014717
0.550696420827372
0.5833188462577353
0.563631047887357
0.5438455034005804
0.5148418742716871
0.48213334054504176
0.4511866717548313
0.41984747746209905
0.36473657684110117
0.34542766267871433
0.3553387670362836
0.35460506963415384
0.3445667566931383
0.35505319550850806
0.3665772899119645
0.3633584684673313
0.36128527220535905
0.3854210292566722
0.42979400906034015
0.5840614950380628
0.999225142483394
1.0
1.0
1.0
0.033774849738335354
0.0
0.0
0.3992348398175226
0.4999221734646434
0.43560972245014523
0.4622938600309342
0.4993313258477972
0.4923383620053444
0.4921365752770339
0.5200139576894376
0.5423501468744332
0.541755973896503
0.5451855261550953
0.5650840155036072
0.5891618147920127
0.6025587193549315
0.6081160762671918
0.6442114599700904
0.689567707010192
0.719717477328962
0.739656244285799
0.7681188491812344
0.8166390395730236
0.8304964438200729
0.8358343346416802
0.8413992659638628
0.857815308169253
0.8529865630506286
0.8272200985965472
0.805653467655671
0.7793166097314937
0.7301249401469343
0.6657062967783766
0.5969540524823772
0.55572212051812
0.5183904781715967
0.47900955671705664
0.44281614085041443
0.4557815014709273
0.45642140733198433
0.4581836721161312
0.45960516940414153
0.46375358777716763
0.48381461383902813
0.4842814893334488
0.4677043071179526
0.4654299861614624
0.47810871292122864
0.47438680693921453
0.4545761259595872
0.45398234657923364
0.45015901911753325
0.45548743982330125
0.447891894562119
0.44124344582245756
0.4426580409056233
0.44058889105584925
0.4261394419516262
0.4136727417113725
0.4192870517436499
0.42844819269017914
0.4054854360251361
0.39642539985796243
0.40946433073553623
0.42373845752244027
0.41110886050086853
0.4019631850807843
0.40286837630081535
0.41297515139682667
0.4150204319965047
0.4053530076440916
0.4136681640920566
0.43861451886928327
0.4566324863665331
0.46427905793552354
0.5050006671392782
0.5565743858950577
0.56603991161242
0.5500710786831131
0.5249937168312533
0.49571910971663796
0.46213480226392667
0.42971650592588395
0.3885595451931827
0.37101094987127475
0.38033500359111716
0.37133634663230514
0.3476176074445093
0.3658139859420505
0.3863522568912905
0.39300637054698556
0.3931284602505697
0.4210167108387434
0.4798176429004667
0.6270095057514113
0.9574187994733337
1.0
1.0
0.9668612462794673
0.0
0.0
0.0
0.380351439711028
0.4696839004610366
0.45263054444979184
0.4792092060550459
0.5021345170347511
0.5064330809820742
0.50821333175712
0.5292815586701265
0.5461781169294754
0.5681264175148613
0.5650882582467073
0.5889698764721787
0.6113370167780914
0.6340654303952511
0.6426972813030398
0.668074916854829
0.709021256554191
0.7332832349106652
0.7514513581676465
0.7830382049783997
0.8203781567946844
0.8399613344563968
0.8339826390392959
0.8261726537272001
0.8502595810721859
0.8448962807457316
0.8238633436369422
0.7944308189300537
0.7790333850817415
0.7452477474714291
0.6778641024826851
0.6228831401087158
0.5847004582384502
0.5558499448378905
0.5240233948887875
0.49706344339152925
0.48430336352982845
0.4921849034017411
0.4880848409637249
0.4846079556864097
0.49346203874475253
0.5063471668076635
0.5058154519082414
0.4956622004014185
0.4908746035117092
0.5163981796799018
0.5024184801293605
0.48782571576740263
0.4776540826234027
0.4888641083576495
0.4943045458494426
0.4780001494687989
0.4585579853347553
0.4651497094480909
0.4633485392086018
0.44176691266818546
0.428168933888729
0.43560316303083263
0.44877507728839444
0.4378077113758464
0.42793730829833854
0.42792714767312806
0.44355610748598134
0.4341814402075257
0.4234937086618836
0.42964869908291037
0.45026938312533626
0.46324356855572296
0.4826523986673985
0.4999688612674194
0.5415903492599712
0.5518833482216635
0.5236287116936522
0.501982184201361
0.4915946454015872
0.45679534323809473
0.4272564624045896
0.39945162950239743
0.39598953398710696
0.40253715182513705
0.3963636704073846
0.37942808771645037
0.40213308146029014
0.4195817029305039
0.42290260283585435
0.42901410943713836
0.4560953703280178
0.5023087554159663
0.59829826993769
0.821496682630318
1.0
1.0
1.0
0.32377955671717185
0.0
0.005785318435009313
0.3889567842809844
0.5084767017299938
0.5004008501946993
0.5153002222510576
0.5364954082810635
0.5361769576223934
0.5320773944273577
0.5527379432115735
0.5793753456661298
0.592545599247851
0.594818242136763
0.616494580786117
0.6303884513738722
0.6199359681163241
0.6293588600018581
0.6526704646544979
0.6755583920777563
0.6898335374947917
0.7183293515848979
0.7550999965332046
0.7996799793203095
0.8153122891593604
0.7919045782524312
0.7809169509828211
0.7780307831571605
0.7539221797693255
0.7255549114998588
0.6909119908845905
0.669061699162518
0.6281351758040021
0.5666657302289161
0.49898429398093314
0.45888190097743903
0.4289438082221242
0.39215935836923965
0.3725918575544293
0.37611382010523303
0.3976128062886945
0.41493561699413795
0.4305142494631801
0.46068499560001974
0.49341909328848244
0.5067447510985292
0.5126033608055622
0.5122388101627408
0.5191680461238702
0.49904028322599914
0.47510713726654413
0.4734983433898927
0.4908142061920578
0.47454119295653835
0.44479686201952473
0.44087912048305633
0.43953089756017905
0.43797947037630197
0.42489802248746644
0.40957778191958666
0.4198511420755895
0.43469837953833756
0.42917510986313256
0.43075521709764314
0.45546736095440377
0.4781428114289691
0.4795532577005672
0.4811849415373163
0.48991855891533487
0.5012945450261955
0.5254036719170068
0.5449681148070143
0.5767023470250858
0.6087498068386725
0.6285981382315357
0.6166776917994492
0.5763785927405262
0.5172995512662059
0.4576059281958916
0.3797256028906587
0.35374149673352295
0.3476974986752636
0.3585324643052453
0.3507747722096891
0.35254130282440005
0.36926238968152275
0.39969454589091313
0.39416550413259327
0.3949651527823691
0.4245096785966238
0.4667169910495258
0.48995377558895764
0.5692978450818743
0.7969062232625582
1.0
1.0
1.0
0.327671082124332
0.0
0.0
0.2753950626825469
0.4182264738632635
0.4581435931538991
0.5023333085700761
0.545475434359839
0.5828298112631956
0.6212943350619697
0.6508849859811126
0.6556520229596341
0.6643076010110102
0.691958768709662
0.7180719688306343
0.718837901709289
0.7161288977563448
0.7246915355186326
0.7386097798527999
0.7227555783359781
0.7177422483370407
0.7363137644245576
0.7594229387244285
0.7709241469918127
0.7630745513916446
0.7599222873716205
0.7516877960215427
0.7452807837233832
0.752396329390011
0.7399900036225844
0.728453364527484
0.7002495510048299
0.6558513414287864
0.6190634782246232
0.6031468909618898
0.5761276465746381
0.5324600346727053
0.5182812560734005
0.53683276588912
0.5566920724251088
0.560460002138704
0.5738836935410344
0.6044569655517755
0.6363593689614705
0.6420137641080579
0.6316302934590627
0.6466095798659842
0.6537695691238203
0.6366674793672435
0.6171806701279959
0.5973773981619248
0.5982794858329802
0.5805283852216028
0.5593661184161015
0.5411261482832296
0.5370416525141868
0.5343293334894327
0.5272070370769809
0.532200479149291
0.5393007029370793
0.5419839112815317
0.5231998659061472
0.49196912418630967
0.4807071147925296
0.47897804959182755
0.46086014675019404
0.45290783655809863
0.47224436242076334
0.5058142348075203
0.5289373390683221
0.5498464839192843
0.5863790224431282
0.5876167339534404
0.5727514423410642
0.5418123867783892
0.5177719811038176
0.48866147892564704
0.4625359835080002
0.4217452963408295
0.3896278246763594
0.3961735542835244
0.38899379269960105
0.37684980023656633
0.3750622280541897
0.4017968525957323
0.42041813766949004
0.4249734546709509
0.4363871066958381
0.47740892939445756
0.5750021442699398
0.7909427672248339
1.0
1.0
1.0
0.36090516960674857
0.0
0.0
0.28098617349915267
0.4062493892561232
0.39351024671731183
0.4033391362397821
0.4362676251007338
0.4440273269661783
0.44000737580375243
0.44637657326583396
0.47887091242319196
0.4919426284232876
0.49942478122103146
0.5041840507886493
0.5394860318541058
0.5765067250638869
0.5859001191377743
0.6060219538337648
0.6293354320603302
0.6630960338097117
0.6962987920269503
0.7142344944800434
0.7508919051792017
0.7888098540822928
0.8158372565955929
0.822279613267655
0.8367537055562249
0.8535602976755291
0.8534904286622856
0.8377696024131304
0.8182266329642353
0.8017294022853312
0.7597162114422218
0.6945851573464151
0.6280107675626942
0.5920564461582439
0.5672178762129383
0.5410127966414577
0.5310062581313435
0.5372040334518565
0.5394800006934042
0.5296107752775354
0.5234081315365692
0.5317260166116375
0.5401221167290895
0.5311877405878606
0.5021897268764224
0.5009371030758397
0.5088291600107782
0.48920989003971727
0.4656834961671336
0.46400833689814514
0.4749364755985792
0.46750654963920846
0.4464902734043851
0.449633588849509
0.45971176291261984
0.4574055024948832
0.4453359514585866
0.43812193290444884
0.4423888985678558
0.43617656627237444
0.4180187750190796
0.4028372247897865
0.406215659603183
0.41684496684422784
0.4000447080473145
0.3819019903186191
0.3918745625519745
0.3998922611203266
0.4100838802643807
0.4229566623670914
0.4537160884398831
0.48590291256146784
0.4987093436910118
0.4818386959775093
0.46845745055173005
0.4516857373631991
0.40581412944658285
0.3739203766667277
0.3557456685172933
0.3426134438572248
0.3431092350618357
0.337640385723898
0.34132351095038743
0.3551599355404562
0.3684030695273127
0.3687492565836374
0.37135257525552684
0.3889477440239233
0.420753381293422
0.45354836584996
0.5571031619711557
0.7975539992722505
1.0
1.0
0.82800532641499
0.15823314747484787
0.0
0.07405525978810186
0.4078683380514492
0.4866667213623552
0.45692124920033983
0.4390826692531412
0.4256653431033359
0.4124941667291722
0.4314470360155326
0.4670510829017556
0.49278051581800614
0.5076751452172885
0.5350284098564608
0.5527633136021496
0.5697989876656073
0.5908322452125744
0.6209488243807414
0.634809832202794
0.6413135029223708
0.6452243758116001
0.6689799782368284
0.6997054936825929
0.7024912286840872
0.7072588827036579
0.7121043339474021
0.7223960218169893
0.7169651365696139
0.691185452402763
0.6848005948909109
0.6916363453640927
0.6825065644109166
0.6550166833040898
0.6316303827575801
0.6234030514643082
0.5840598563457451
0.5396216250923455
0.4943100522045055
0.4955484142405287
0.48493691271614797
0.4780125503590448
0.4886480814004096
0.5045339025795114
0.5212397705386838
0.5225225740491786
0.5112924909173184
0.5238012310006106
0.5349189628367259
0.5301323352350017
0.5172955279798177
0.5186639237343389
0.5389785188157235
0.5379261847074497
0.5293726265417636
0.5233064091363518
0.5275307979315207
0.5292625895597435
0.5145003857784631
0.5073845275419783
0.5114126801896821
0.5034713581078254
0.47889736266752614
0.46984380119448116
0.48075514695074234
0.4796674796994404
0.46168204822652603
0.45058368000726884
0.45795791400558583
0.4617423409125834
0.4494561053592084
0.43851611485933084
0.4466719035931089
0.44916810909795934
0.45438169604102246
0.4685433343605013
0.48974217281194193
0.5129303534380696
0.5400280745747613
0.5431931909728935
0.5377221315041936
0.5370298104030821
0.518353514422344
0.48406620639218156
0.44647218228405877
0.44407710942572853
0.4271754637523778
0.4077781519457767
0.3940822767490943
0.4090305923828545
0.4149415121301421
0.40907028462962797
0.39709773028568246
0.4159360887905007
0.42392452028930094
0.4400516831887769
0.45527117685302815
0.557090795737456
0.776812939051522
1.0
1.0
0.7771695964019351
0.1297178775267973
0.0
0.12398275338573068
0.3943001643046625
0.4746340918881091
0.47153269262916153
0.4926268892039628
0.5103730226530725
0.5377251970286452
0.5657937290248307
0.5788781826489535
0.5896787566711599
0.6163202653401545
0.6371988382652756
0.6519270587726691
0.6603969088788056
0.6769302407425787
0.6948968226956854
0.6972823669345838
0.7049562671090477
0.7235353952110899
0.7470059431671114
0.7638987046236394
0.7695656141662891
0.7791271593308606
0.7971709653987734
0.7860620439294796
0.769063931501152
0.7566872210986652
0.752126809892597
0.7442323498665815
0.7087441695319114
0.6724392881468307
0.6387583348049269
0.6112249219307272
0.5628682240033572
0.5332065870621886
0.5154853318660055
0.5136686406969022
0.5109613748766114
0.4989306418056006
0.5082479402975896
0.5207989302692991
0.5084485298582292
0.48968528185681776
0.49682210307724917
0.5055412213173056
0.4984248360810309
0.4830509787311314
0.4794435695403997
0.48181059993413167
0.47356071040202136
0.46255402841033755
0.4576105841212684
0.4588747040430191
0.457868499922997
0.4440686781391018
0.4394986858856897
0.45165255217000577
0.45424228180777637
0.43430139776335236
0.4280071157973186
0.4343208297626899
