MLII
0.5
0.36510184810468094
0.5
0.634898151895319
0.09358320148532177
0.3944634235770511
0.8936843316976116
0.7607182088013877
0.5
0.02934619379106058
0.334725854746034
0.4126176202771713
0.3269601357819931
0.23023036308352185
0.3057625847820408
0.33357788476309425
0.3124844657472817
0.306524417246739
0.30202397154948735
0.34533802749357095
0.3569649942386467
0.3659871784780045
0.40722277532869294
0.42828187457303796
0.4088346092526024
0.4117948075331787
0.41602060151260717
0.4364790330397696
0.44174430655959196
0.43166885317923887
0.42028447830366433
0.44258727636845735
0.46497746845393334
0.4398004652465238
0.4345339323430989
0.46581443925690247
0.47457778532541106
0.4779558053061856
0.49938260070307994
0.5761248371276171
0.6309098546255922
0.6605336039516981
0.7457684150847566
0.7961361764822782
0.7486061364399745
0.6875339548751678
0.6044963051188608
0.5450523836648011
0.4740348410214891
0.4356626040894852
0.406770824575658
0.40800803404114383
0.43355273944735967
0.4484416320865553
0.4264755949683071
0.41307818669767354
0.45880004671258356
0.45566469883063154
0.3751275894914238
0.11071030582364667
0.10935070508308894
1.0
1.0
1.0
1.0
0.11324621288661607
0.149362618343743
0.0
0.0
0.0
0.0
0.0
0.2938201585327335
0.4229622655842902
0.45166995421329004
0.4631666806404011
0.48386679691803935
0.5477472127215035
0.5466988725648386
0.5359329366927006
0.5440366577145278
0.5926101355939861
0.5949109214903406
0.5885011447020657
0.5879334492761645
0.6281685472894195
0.638423778871012
0.6408694201914219
0.6572602934107736
0.6937229860011704
0.7351449013245749
0.7490914124367185
0.7534298569313143
0.7930685564252243
0.8384929271391316
0.8541145552646888
0.8801644628833148
0.9322546538184373
1.0
1.0
1.0
1.0
1.0
1.0
1.0
1.0
1.0
1.0
1.0
1.0
1.0
0.9383815600430048
0.8563165353770288
0.7786199543526846
0.7263323710894387
0.697093245718523
0.6349866849577822
0.588024699878668
0.5752318931723437
0.5805294678452814
0.552381546314306
0.5368098007726074
0.5456762465045963
0.5637870517500577
0.5563484689699253
0.5304609913657439
0.5409605539610467
0.560145268519747
0.5477157698562272
0.5256382434436421
0.5229659832981363
0.5440953999915867
0.5359205964104031
0.5083452917382028
0.47937345236787215
0.4913529417441135
0.4912117981196874
0.4847506852305569
0.47027012631500886
0.480015869394723
0.4918267196828987
0.48172217006310597
0.4582208112678579
0.4823271548952991
0.4920092262131591
0.47546421901498837
0.45965304768343296
0.47395987308246823
0.48813603992490695
0.4850276038268369
0.4653599357566084
0.47306984100186533
0.5011749780614747
0.5086868403131729
0.4852091621537471
0.47652515806983403
0.49846849845544705
0.5151717903285623
0.5282582131532534
0.5450314118318375
0.5815339072278648
0.6384298529464292
0.7012951348089433
0.7367126646865068
0.6946542395684648
0.6622934129105553
0.6421445100003547
0.5839588899928914
0.5126011206295269
0.4877143365226021
0.4453680533213141
0.43372683160474745
0.41465170729272105
0.4226986352202061
0.4089506367758429
0.42348590926891927
0.43401842898815435
0.4624572338087172
0.43541677618986324
0.3727614848916723
0.13081394432500654
0.36646880529838294
1.0
1.0
1.0
0.13189978446465486
0.08140174415651336
0.0
0.0
0.0
0.0
0.026249892258564157
0.28430303716360183
0.4026452177523877
0.47799626459667516
0.4906800424978169
0.4990107800921117
0.5152768153973959
0.5578876660098591
0.5526444888455085
0.540050258733632
0.5351593565441054
0.5803199012393317
0.5819996938000929
0.5796433390937016
0.5811643544032219
0.6342034992909047
0.6746393111405515
0.6702808645582751
0.6550332690416892
0.7141534928876104
0.7504373806416712
0.7454599643062743
0.7615234373140046
0.8145983282289215
0.849476766069424
0.879182464061316
0.9015944549469539
0.9430181612853046
1.0
1.0
1.0
1.0
1.0
1.0
1.0
1.0
1.0
1.0
1.0
0.9925872663976072
0.9504507993293927
0.8926582067814295
0.7952101702933284
0.7184667759066516
0.6911598893536887
0.6581084908236825
0.5802897916664028
0.5434295292530512
0.5420565838730225
0.5412229345394001
0.5282191808672019
0.5164185449874882
0.5138660970611062
0.5351463455928899
0.5298966301519419
0.504636946683725
0.5349517509684761
0.5461189303306646
0.5316030417793722
0.517989061992533
0.5022393624246461
0.4979727009369904
0.5364111056970339
0.5189709619716418
0.4757536502342502
0.5108838786591017
0.5199267903036314
0.46208507080387234
0.46293087184758586
0.49620372451096156
0.4739286036424004
0.4551008910766286
0.4709595994589334
0.4937257597247003
0.46605736222603733
0.4592175367922541
0.4642178228451142
0.468279478169584
0.472696585132051
0.47572698471753566
0.481230902227008
0.5580329929770129
0.6094939417009536
0.6038425690154972
0.6706314179255367
0.7177411393973185
0.6866467222718003
0.6447416622419065
0.5706802735321456
0.515652618826929
0.4411691227495191
0.4302096173935251
0.4096701996890474
0.3999566410735403
0.4220534734944022
0.43952970305587663
0.42463258054953695
0.4274084282376892
0.4066495242548977
0.4512174915144816
0.28286973122822046
0.19870477488482777
1.0
1.0
1.0
0.09002719569632242
0.0
0.0
0.0
0.0
0.0
0.032183098753858365
0.3108328932909133
0.4084474948060529
0.4559126688540605
0.5003910901087361
0.5292252105377561
0.5226136724384295
0.5224374990929069
0.5463284560140702
0.5699465153840113
0.5639473146353211
0.5630577130372385
0.5947669477550865
0.6191376509911015
0.6072829718012865
0.6133930113967387
0.6244017500859028
0.6531196511977525
0.6836178474030101
0.6675208614380255
0.7001193368718427
0.7323332854422675
0.7370120358559432
0.7624939483446775
0.7730681859232342
0.8106602966549371
0.8297608486259597
0.8489971475214139
0.8580846109609462
0.908738944493266
0.941643288501368
0.9455706089340211
0.9562623237498322
0.9987390675846142
1.0
1.0
1.0
1.0
1.0
0.9505069180508094
0.8752904497663001
0.8280874626820651
0.7650048635306408
0.7126601455453798
0.6475043049905018
0.5880246776703724
0.5688043692021687
0.5445502675699141
0.5286883086615154
0.5338877738649368
0.5490548442918686
0.5507989277799559
0.5383819238097601
0.5458950134438424
0.5736466542031301
0.5750063964393369
0.5556508103494443
0.5515107698828161
0.5692556803579107
0.5766902179259328
0.5415498310392823
0.5194515859498744
0.5397146461810984
0.5365464271021758
0.49750794712800606
0.48267306625747236
0.4897173154080129
0.4928282255263087
0.4765825111705424
0.4579578961492564
0.45824613960357097
0.46698663540521695
0.4597648874416086
0.4372719698655832
0.4325509240523405
0.4533912224713207
0.45507474768081346
0.4423824556303346
0.4527062276141356
0.5015963303723471
0.5026977650846665
0.5233676245565124
0.5627061320976028
0.6505613523548063
0.6792851466421056
0.6250035775558744
0.5671711371508781
0.5330672519702697
0.4892380310755585
0.4235322430525178
0.40278756396179355
0.4171564505128037
0.4134779961755159
0.40251295668114767
0.3850693797650616
0.40191771560095113
0.4077087542766276
0.40069331235939953
0.36384307335668703
0.29257623144248324
0.10315041759613246
0.5110930077315832
1.0
1.0
1.0
0.15996737308470546
0.1157254872712334
0.0
0.0
0.0
0.0
0.1270498604955152
0.3222594281385291
0.3729149112782744
0.3930168177905099
0.4012597741408694
0.4320639287084771
0.4555355444158845
0.46693850713088736
0.44289307360262703
0.47013710234034134
0.49737402020525884
0.5045284214892305
0.48948964476863444
0.5170956591673843
0.5480072410884285
0.5524464025744138
0.5676177991556488
0.5871328294524738
0.6197539457470647
0.6476251405815057
0.6563647948886046
0.683841596298197
0.7211162323802844
0.7526983192897231
0.7722593602968116
0.8114667845279998
0.8675558905410383
0.9107735656267917
0.9285264626222973
0.9551963382144905
0.9889502547067714
1.0
1.0
1.0
1.0
1.0
1.0
1.0
0.975902851265397
0.9435492409028713
0.8762353243039278
0.7937030606179641
0.7378376993594937
0.7024107817291677
0.6559601941543652
0.5938234015604267
0.5549566666451173
0.533793397984297
0.5374855656198291
0.5228967924573342
0.4939455457786234
0.5051056432094476
0.5244387397382757
0.5155765470221905
0.5035306876094325
0.5061900399115283
0.528485369709235
0.5350767505544918
0.5180818635406469
0.5236144317352049
0.5340887782197218
0.5102877000653482
0.5101637200372817
0.5056289281232138
0.507821022477885
0.5053363661248177
0.4837297996540101
0.47068778867096295
0.4876824776241012
0.4887354077194607
0.4695058902909862
0.4503157676047823
0.4641494240479001
0.4777421962413652
0.4626271102197168
0.4432473373483101
0.44706648482271494
0.4624219691320902
0.4505779465417188
0.43411100882545295
0.4531599860183517
0.47110718623090914
0.46261588905396467
0.44910386909627187
0.46453379595197913
0.496881296375408
0.5122193878984741
0.5214556925914124
0.5422110574475745
0.5907847125848702
0.6528874076160504
0.6657227313650089
0.6394836033456005
0.6263631465647836
0.5968447956971652
0.5315798199537155
0.4626122272168593
0.42912860418347326
0.43815689092496085
0.42006069147618075
0.41499647251831534
0.4190346636635078
0.43555398694973474
0.41733046722328904
0.4118070041158955
0.42178481647832855
0.4412213313187373
0.3931034727139059
0.24415307408403764
0.10811728316287446
0.6220403779908209
1.0
1.0
1.0
0.29709532023962437
0.22642887188567024
0.05475964115774552
0.0
0.0
0.0
0.0
0.1870077326720465
0.3535470554814921
0.4161191044320939
0.4263655684253257
0.4300899178897108
0.4518821344424264
0.48123434096819057
0.4732529077690564
0.4607355871167985
0.5058362281237632
0.5441856902383734
0.5399577943611812
0.5434646489248189
0.5440188358139801
0.5679011855969502
0.5765272460938957
0.6042507074995532
0.6192200323154896
0.6514776041052575
0.657554809883593
0.6776923011051273
0.7025020394073094
0.7606097776760097
0.7968101226753707
0.8182823991940644
0.8466583336955029
0.9082450503064852
0.9327889070498191
0.9525088966985337
0.9884852079585599
1.0
1.0
1.0
1.0
1.0
1.0
1.0
0.9893797388570199
0.9560047897848453
0.9275000393910389
0.8338457420612471
0.7359235534032331
0.6883238156960827
0.6860023478587018
0.6279709867617543
0.5814631719711251
0.5817337980198662
0.5672561325612232
0.5282976568490134
0.5022134412111143
0.5045889012793916
0.5405855169577206
0.5638970389232462
0.5275524743491233
0.5082168251516177
0.5338997247586544
0.5496450322254056
0.5180529313374657
0.511807208435669
0.5226604843213732
0.5233371015550194
0.5110192855000838
0.4905086700085405
0.4802768307831068
0.49120866111252665
0.4924999194226157
0.4798512885870556
0.48400294795578136
0.49216352311950534
0.4814983241216157
0.4503716996073594
0.43323864560643005
0.4551243749408533
0.46062518820240717
0.4814673896779543
0.4736543253886284
0.47120832858970835
0.47319514840949034
0.49067244843130275
0.5401860059054509
0.5621536413305234
0.5656077789236134
0.6109909234098269
0.6416557895485283
0.6658784453700176
0.6364895902905474
0.5800437117892115
0.5164541698311998
0.4519245422194841
0.43947722327602873
0.4611796401266339
0.4213782383676968
0.39288846354498685
0.43487790357848066
0.4334759106304011
0.39107284078372856
0.41337136933317786
0.44429233745481733
0.43987555246438353
0.28908193385608455
0.17756241181137206
0.9139105956131385
1.0
1.0
0.4800567647607547
0.0
0.06810075062727501
0.0
0.0
0.0
0.01848600903764126
0.25891466644952704
0.388298556025374
0.44579829604742266
0.4872615559325242
0.48308231475869234
0.4797019794069636
0.530616442002099
0.5675267126861009
0.5372778955797142
0.5107620725125539
0.5689617572062812
0.6176206804583774
0.5865358075477387
0.5597544084810916
0.5914894449409902
0.6573447915064236
0.6789441985325757
0.6598547274399931
0.679249335811076
0.7003315594226303
0.770868170535765
0.7818634788398946
0.7606190334749696
0.7928064554303432
0.8475299124770709
0.8860856510137222
0.9023503438302948
0.9275564941447427
0.9777130051958602
0.9958761724652636
1.0
1.0
1.0
1.0
1.0
1.0
0.9784021413487827
0.9233404736140823
0.8503618203232735
0.7833601138241214
0.7193778704982119
0.6886259582769487
0.6396577396138621
0.6016704514121176
0.5812281715930844
0.5745261930654808
0.5579717952003149
0.5476393962429411
0.5490593398241972
0.5666477011387638
0.5698578286316247
0.5668983658568452
0.5700349284037116
0.576514104085931
0.5920952094202271
0.5801880704393267
0.5644257278855686
0.575492096617462
0.5571686170538375
0.5238808071625866
0.5221832687106861
0.5344076734356515
0.5172148362773813
0.503405758323219
0.4868646926329367
0.48694908051243074
0.5165041518216665
0.49938272055016864
0.4853102037397489
0.4881936793155971
0.49670664409937987
0.4912241719902483
0.4853072667513046
0.5144687368470642
0.5503479756691462
0.554326613288532
0.5813163127219387
0.6440892970664904
0.6733289794755052
0.6365893566549035
0.5822529110372361
0.5569074059137521
0.5222432333125979
0.46112476027436095
0.4200020328161031
0.4195033633447549
0.4230148527139096
0.4096664053826089
0.39174473398732684
0.3920517806134315
0.40585764074085995
0.4154082596754046
0.3952709447815954
0.38894158278081525
0.40232869760261114
0.4120510530665527
0.404057797657326
0.38839432359559184
0.40485759484627426
0.41205954567068204
0.40658456623107064
0.394237406194413
0.3907303729935111
0.4143093508469707
0.4048149190932719
0.39841625557367827
0.40548716517664457
0.42148366318292085
0.4242260300456617
0.4159980865522212
0.410652191661194
0.4163163740324121
0.42476633451226115
0.42126681956468826
0.40785737223432805
0.42089786605560303
0.4416891562286417
0.4256469412379883
0.4305534662270662
0.4387180685259633
0.4535162772178502
0.4525432233687702
0.45104052975494213
0.4618399197749663
0.47989337256460907
0.47581379378100586
0.4619052714128327
0.4766264904190772
0.4802367936477558
0.494072701261412
0.48022152303126864
0.483460315947329
0.5080088772760389
0.500997680936047
0.49173698912314484
0.49018436101509355
0.49127152234435145
0.4944541358104102
0.4981089814303724
0.48818592442830006
0.5068796234163797
0.5139783712265087
0.4912473854894103
0.49639705741580664
0.5170068487566088
0.5246411812806694
0.519453018518196
0.5063045482650625
0.5091539832701242
0.5284937351763335
0.5194231644855883
0.5074487038745378
0.5087876550715554
0.5219993355768318
0.531949436808148
0.5227896110515623
0.5139984198262584
0.5430305357459871
0.5405748184808774
0.5235594883641912
0.5262736984835542
0.547995003734406
0.5605181435306977
0.5513908072251619
0.5467728885960841
0.5538654380844555
0.5671577696377704
0.5517921075840637
0.5421982895832836
0.5530868440566208
0.5680124557888053
0.5633212033383577
0.5473874791414912
0.5528014636400587
0.5675998780337417
0.5579262559583495
0.5498616525086271
0.5649356724741208
0.5754816704047909
0.5836626840598896
0.5709407481757593
0.5680116521017443
0.5832486957302381
0.5963640561968427
0.5986971359328417
0.6256184688510559
0.6556384010333887
0.6844406934172562
0.713190179181475
0.770625081255129
0.7988426021500468
0.7791480636140076
0.7208496808195143
0.6762565461036552
0.6338107313830155
0.5973417606460988
0.5691076616927659
0.5506816350547726
0.5546693786474222
0.5528735191916577
0.5509332866287584
0.5491846272781065
0.5435804592695429
0.5690709979040877
0.5399093670211998
0.4256411093702054
0.2604897199047039
0.7357436054488395
1.0
1.0
1.0
0.8984202438843096
0.7202839310142259
0.7913939725486292
0.6622615729577463
0.5546719493494354
0.5680180595250316
0.540208495338377
0.5140087417581858
0.5065642629670989
0.5201859365484092
0.4949312687088905
0.4857987678651641
0.49061824368503143
0.5281442498024498
0.5183536712841179
0.5036147227053811
0.5158192839649237
0.5304043997176539
0.5290244300233791
0.533827227387395
0.5187250134914301
0.5494606746387422
0.5428249255450233
0.5381683746033153
0.5594830485059036
0.5811380053421132
0.5974503988032291
0.5918953155990592
0.591452071187254
0.6156792810375276
0.6367756716221725
0.6324147526406275
0.6162210238162331
0.6238094983133723
0.6586018407573919
0.6623176270504206
0.6547242134816693
0.6877976700562268
0.7362024317788046
0.7734305802715179
0.7955196479844293
0.8178149930948473
0.8777947638356414
0.9135845846423717
0.9538915176116001
0.9878893545183054
1.0
1.0
0.9971877070812962
0.9729952337655614
0.9817708214684959
0.9451771402872872
0.8799545428215628
0.8218871213923032
0.8162107896176896
0.799309536516455
0.77589375629483
0.722860534403244
0.7179310585471527
0.7150650594466755
0.6891595904092459
0.654783222507199
0.6718021634368686
0.6969447079525921
0.6733155915776325
0.6491000447682269
0.6487837934511296
0.6646195413988952
0.6382222137238702
0.6379250486814958
0.619439832220774
0.6388449633243557
0.6026996333354786
0.584186994623757
0.6007616003756678
0.5905932452900456
0.5631762421955377
0.5577896410768748
0.5674490759476595
0.56034416278491
0.5647278062539756
0.563023675853486
0.5487377001946168
0.5524159619213297
0.5433136188175965
0.5466050580478787
0.5403169111390602
0.5425533551212028
0.6094807733724336
0.6484564360083306
0.6285099701631862
0.6712798235545492
0.7462095613925788
0.720645959611559
0.6467307824077568
0.61467262716307
0.6085412838921652
0.5551818163435543
0.49795646729771714
0.4711783835463309
0.47718552242921397
0.48163815123795584
0.4633357825354497
0.4354652776442995
0.45789958367048766
0.490550507825508
0.475231523223434
0.44957264954207404
0.45125600492160955
0.2852854470918788
0.2449130186365372
0.9863163748778139
1.0
1.0
0.5934185018318886
0.04276754171756227
0.127512752215444
0.0
0.0
0.0
0.0
0.23027425502646565
0.4004491812860932
0.4618559113230104
0.45839435922245536
0.49584788588345996
0.528045018818229
0.5264739756801697
0.5330641304858349
0.5655099505393955
0.5737216944714707
0.5712750075639352
0.5641462053209401
0.5912737198363704
0.6252378996112932
0.6139765547160636
0.5912399524266431
0.6405659488900174
0.6803046184027045
0.7097705938022403
0.7030062085881598
0.7209673079166181
0.7787041000564014
0.8190311474711832
0.8096524874874307
0.8391397015220182
0.8940209944837832
0.9516327734198597
0.9685091773236909
0.9635345876306157
0.9995978283778388
1.0
1.0
1.0
1.0
1.0
0.9859129116780381
0.9392915914384314
0.8864996046858356
0.8374887759777334
0.7629429110231929
0.7016153302490455
0.6778518815055351
0.6277578485792179
0.5987489763720479
0.557985532924548
0.5266652451243834
0.5735314641987962
0.5548254956532996
0.5190685605442604
0.5245507556463306
0.5457226121209665
0.5691746214687965
0.5565304407781041
0.5464419645101419
0.5644736023436622
0.5663662412641082
0.5602645071197908
0.5430715476448734
0.5519355120902156
0.5578935173818205
0.5424394286493113
0.5245147577026167
0.5247134497160243
0.5337204481889054
0.5139900310930524
0.5089742198559386
0.5057540253838125
0.512972897826929
0.4988279184800238
0.49129832074351487
0.4977727834747639
0.5329947375111779
0.561525038543856
0.565789460229462
0.5888153173684321
0.6505130128287397
0.6844545082793132
0.6523044747949498
0.6141776307351884
0.5947340055123107
0.537987053379891
0.4822192382913827
0.4415915867018144
0.44916719754121354
0.44236958705516416
0.4317016780869952
0.4128896975834767
0.423545460205588
0.43433709448401847
0.4347489766754859
0.41571713812213645
0.3967385380722174
0.225744839744554
0.3326217722376013
1.0
1.0
1.0
0.22110026572634717
0.14343587223914364
0.0
0.0
0.0
0.0
0.20120520645423984
0.37060630899035835
0.41689586353019664
0.43916713445586997
0.44666878904556134
0.4769051342328484
0.48766372721989787
0.49527698592292835
0.4803551113282339
0.5148482585173058
0.521760647787691
0.5385949079236558
0.525759435911075
0.5449078523287343
0.5886144711535674
0.5904185574498878
0.6042089310958252
0.6168208391272146
0.6568261337941527
0.6787853278781619
0.6851498279878695
0.7114784330955539
0.7507485418265203
0.7748584743026903
0.7884039663492534
0.81798735077222
0.862627861145379
0.904446687844857
0.9079836652633201
0.9119058550125917
0.9486367126108135
0.9823957087015055
0.9984557556104935
0.9898953582777704
1.0
0.9866527379902272
0.9406308046506752
0.8818635396324659
0.8264405226152223
0.7752818608392676
0.7134634795520901
0.6538097413913774
0.6020221598673354
0.5825864793891949
0.5684675530791106
0.5423868987765342
0.528864077768881
0.5466952549670674
0.5524768239449979
0.5342358279011754
0.5257001519523274
0.5499362116381967
0.5615683781321977
0.564957073294474
0.5532449629618734
0.5698959968103516
0.5768342270771001
0.5688692431287152
0.5480738793154025
0.5536802059836015
0.5494902352373493
0.5421335231595673
0.5241226780688176
0.522806283817032
0.5259317598056176
0.518396919212081
0.4927532700606327
0.4872432658591893
0.4960307896212505
0.49454655439478
0.4799264668988055
0.48052933215121174
0.4949093171007254
0.49029465798091226
0.4733767502441104
0.4749666448140671
0.48446420980094196
0.49997268436002607
0.48898756363515244
0.4802807418689342
0.48598640657875186
0.5098013745372257
0.5222327248290639
0.5326556282770797
0.5551810941110067
0.589361190124188
0.6143150524083166
0.661814929635762
0.6659675232194981
0.6496810346462721
0.6125785718079934
0.5815137768173768
0.5226676495759708
0.49895488100027957
0.47049093963247923
0.44257339843434834
0.4281891586189402
0.4468384467061849
0.4474947538993109
0.4390767425150933
0.4310806670745945
0.44873514455711955
0.44858181880394293
0.4006125798771576
0.21433210936560218
0.32085392059797146
1.0
1.0
1.0
0.545430667160925
0.2009917785954142
0.14036965042317973
0.0
0.0
0.0
0.06539444029366023
0.2730462919190685
0.3828183810235332
0.42926302044051656
0.4460083870623441
0.4543416785183516
0.46279184326274053
0.4899270497043243
0.5007177575508508
0.4921517548386728
0.4837582399998235
0.5108020160465793
0.5268059939196675
0.525366789479044
0.5285041097336736
0.5504142906573561
0.5747096283898175
0.5653032954689295
0.5855010726816909
0.6138212272627694
0.6480581265651696
0.6660299102289895
0.6733143023791195
0.6966933086739578
0.7405314205240818
0.7704843250481817
0.7777052907290003
0.8167303854621155
0.8634224316395473
0.899320015524605
0.9132657205269756
0.954263782863436
0.9905129294841724
1.0
1.0
1.0
1.0
1.0
1.0
1.0
0.9684067374966101
0.9244900082418812
0.8615674665584457
0.7820245188446859
0.7277446177105468
0.714961803712481
0.6725661043055716
0.6206105051975278
0.5989105904242458
0.6032693955137218
0.5893532411061339
0.5539504669622464
0.5392395842967284
0.5643674765992355
0.5674660270206784
0.5453448465373999
0.5426721112952345
0.5517306997725089
0.5693115394771425
0.5600450919226339
0.5484403165561739
0.5521698653004663
0.5486906717820139
0.5308877749668699
0.5123574413634441
0.5135048309789475
0.5228178077663312
0.5102480595607835
0.47809451647300005
0.4953455628614993
0.5039672038528126
0.47090846301920675
0.4717414401083363
0.49335742084020423
0.5011834745733321
0.48098524680202903
0.4403532861389863
0.45829168800654835
0.4556503826644439
0.4693585148525329
0.4650007803189909
0.46390768255345466
0.46567758605791526
0.4845757868093755
0.5023452897234955
0.49793449908403054
0.5300382036006861
0.5956181261114757
0.6210114401167445
0.609812329533624
0.6173205701015883
0.6093424484776717
0.5444082654096831
0.49646448897160134
0.4541174490045802
0.4589802854781131
0.44190076183232385
0.41501777882830265
0.42217913491063175
0.43136488225694974
0.4083671146531166
0.40605396332810645
0.4342608573665445
0.4474439534284732
0.4139974920224887
0.2673412328769126
0.24727405320147028
0.9311646619024161
1.0
1.0
0.5313582075289965
0.1040957748729749
0.15210123252332122
0.0
0.0
0.0
0.0
0.19750223288563024
0.34333726335776216
0.416276127180656
0.4417328424659532
0.4572630482649534
0.4561172124276884
0.47366196714509534
0.5061994405093675
0.5111149262099771
0.49903136810946896
0.4952520370626064
0.5184116068877492
0.5508501656454322
0.5512501400961841
0.5528246806762261
0.5567031452373767
0.5848301433717374
0.6050754806880094
0.6170390858806509
0.6392513834357235
0.6788909378933623
0.6737337686846134
0.6804480281436773
0.7131937268670052
0.7611226193108667
0.7877126423447096
0.7942912821941184
0.8168811317141047
0.8620890006411859
0.8950583810882249
0.924210869330566
0.9252987359999194
0.9393172046030329
0.9903664108263325
1.0
0.9893158658830006
0.9884361771935051
0.9720349493943164
0.913415920953263
0.8608573904068819
0.816408026876746
0.7633124195213774
0.6916926112971464
0.6321019423279995
0.6002706954792288
0.5840176947474338
0.552119688353024
0.5261835144363465
0.5260401564057738
0.5363493918332197
0.5296057203881365
0.5377016448434703
0.5314629025351347
0.5581209050620427
0.5732769582785684
0.5621866130700558
0.550786084360258
0.5652583501573176
0.5533934003725053
0.5428601853591092
0.5241848812095447
0.5375226840086704
0.5201236412552068
0.5160781465547316
0.5030223822018586
0.5134428804010396
0.5158556927553894
0.5002159930340523
0.4801814842454009
0.48957464918798976
0.5027733667949101
0.5107294255980767
0.5068380259109271
0.5423283877470394
0.5714704439583205
0.5832249661444615
0.6124711816175585
0.6557750750970293
0.6552818307750397
0.6285780892636389
0.570232040492421
0.5158974971575716
0.4881952280553564
0.4561454854878656
0.4210064399954403
0.420160913673127
0.4237425197351537
0.4343388507636507
0.40209950093282637
0.4003735449629652
0.41121106135863383
0.42151442276260803
0.4111541408890935
0.3416933276988424
0.192898068526211
0.48882398539587407
1.0
1.0
0.8975508215550103
0.09913205065915864
0.1450317835025256
0.0
0.0
0.0
0.0
0.19920804328928393
0.33984309595843454
0.4037906469367649
0.41887650671148435
0.4318634883029143
0.43958743388225086
0.4667815055247052
0.4830990194924226
0.4684948088493216
0.4629832185007925
0.4831657305027529
0.5008596028026326
0.49805467937240133
0.5035789188086234
0.5212415285146209
0.5521067387895576
0.5569019575912812
0.553749393930555
0.5801662369644816
0.6076328186984438
0.6190342096236412
0.6349025057047482
0.6520347855028494
0.6953879824196056
0.7146602832861119
0.7258061947142052
0.7492094517862593
0.7841355896103
0.8239899862356653
0.8287690035467874
0.8456292476837598
0.8758767209921234
0.8972050962931348
0.9001276606607564
0.9172774359305294
0.9251480252620332
0.9082603616120923
0.8642301497596498
0.8173319308930296
0.7757502950010796
0.7248964503514699
0.6686933179570336
0.6013395045259309
0.5704474848208554
0.5487171900220351
0.5324899776100791
0.4979499136318385
0.4922980408359584
0.4992255434979014
0.5054670229550531
0.4947768283570668
0.5000648881127223
0.5264878460148772
0.526458110029127
0.5210188620560873
0.5340595817114865
0.5329941007660696
0.5274045272093973
0.5221326743139684
0.5133288336204163
0.5146256015136486
0.5222003748164615
0.5091217087938502
0.48970420783396856
0.49658558387050367
0.4957357642252448
0.4850672976252948
0.4727016932746639
0.47487367583914797
0.48744207812849955
0.48338707751225385
0.4610911167194415
0.4571346048513168
0.4651074999520401
0.4684594097258833
0.4482705879760932
0.4516420796234539
0.4581679805907693
0.46462959276814475
0.4512434666641232
0.4426984661929817
0.46488097915167315
0.47891647624127387
0.4886660611507243
0.49530377912261664
0.5334027217392714
0.5732201078515484
0.6252828968405166
0.6266741574439029
0.5924251956032537
0.57259129936385
0.5309031353337104
0.45368594627429104
0.4314292237610184
0.4403195688163798
0.4274190577418159
0.3985125016493701
0.3978701648932357
0.4191905468170976
0.4172040441446653
0.41643900864155425
0.3990947281748632
0.30655158097578566
0.1906156157160707
0.6703066125261576
1.0
1.0
0.8440842889989433
0.1900053165048848
0.19012431513404318
0.0
0.0
0.0
0.0
0.20321779729531922
0.3557134414651103
0.38976083119345584
0.40023668329356515
0.41798485412354297
0.44767772982836485
0.45138061409266905
0.4410067747224945
0.4467364799266992
0.47217351215870557
0.47396621491094704
0.47254384852843945
0.4704726670954441
0.4926666830233855
0.5073704258170976
0.5129302666759182
0.510245142065701
0.549796959407593
0.5715130827388579
0.5780560519028303
0.5873954386075322
0.6198056083243864
0.6518930405288484
0.6651814448951547
0.6668661219275653
0.6849046363073914
0.7388703221952235
0.7817514704403449
0.7918813142677517
0.8280909278923397
0.8697316752280727
0.8842844911903006
0.9042721580511802
0.9391172130208296
0.9495083612060202
0.9633830762227266
0.976926993369096
0.9647086878136261
0.9500397761102131
0.9424827197709986
0.8790477096279243
0.7999444359926424
0.7789882783473498
0.7401957817214877
0.6784129615475617
0.6241128240421381
0.577840242924407
0.5464674986096159
0.5156228848075983
0.5035690654358836
0.5014875925479845
0.49551659722950425
0.49236030327749375
0.48935788620716797
0.4742874261275823
0.48915586164667635
0.48845876641332725
0.4897392622058196
0.4939206138970233
0.4870938233525205
0.48009176961503586
0.4689585700572921
0.45220224843940915
0.48144194707611465
0.5019073995797098
0.4577752202080211
0.4293514415479918
0.4372493391890906
0.4514233533564046
0.4375901539294498
0.4384567868574763
0.43962379095500637
0.4332755261308381
0.420844113155351
0.3965776761921207
0.39219345118331395
0.4345882114088436
0.4281438309681628
0.4137436668791244
0.4197413897325589
0.41014921924544334
0.39978697446783074
0.4571085041611152
0.4723164889402137
0.4921965867046206
0.500866443181616
0.5031344618277465
0.5525303695006307
0.6041967736411098
0.5865933655973852
0.5379357691371345
0.4758456961938572
0.4462781752951989
0.43250597368315746
0.398344956643719
0.39342748349877776
0.40503642747975777
0.38337173441221767
0.3804341586256624
0.37443630704442243
0.3829307962462737
0.3747826284324058
0.3820744282715739
0.3633959580437254
0.27255850068543797
0.1752032080009518
0.6298501403342626
1.0
1.0
0.9309267079556509
0.07736935534269537
0.13326045323957833
0.014189742935809413
0.0
0.0
0.0
0.0
0.20721027762455377
0.3161331042990727
0.3527875975670618
0.36596868351618295
0.4043190263563898
0.44055214662401515
0.4404117323217961
0.41134745213964863
0.42038341047409294
0.45762427307777065
0.4759062118574836
0.4617013589087227
0.46990549939881693
0.4558732188361569
0.486829883669403
0.5274758127059533
0.5301137127596096
0.5208599418352393
0.5303989983007769
0.5439046508244948
0.590444872692402
0.6079610925672643
0.6277860751714683
0.6352603386151039
0.6594537434115356
0.7006879732112397
0.7225011012967555
0.7344152355753695
0.7555797716450099
0.7925091831005362
0.84465734471782
0.8568684322806697
0.8539305513583504
0.8667461110289982
0.9100770549129887
0.9227025388688098
0.9004600637784567
0.8918144389679352
0.8558318130542695
0.7958600028635268
0.738446809105299
0.6745634873198936
0.635732595540676
0.5874319552799063
0.5429276605017956
0.5092137293839187
0.5004824744919798
0.4896104420668733
0.47758944803103354
0.4576916097160801
0.47770788732306596
0.48929599934378026
0.48809435587770345
0.47826064605090596
0.49170245171606447
0.5120995693527478
0.49991844859906853
0.48140021165920704
0.48411152515929723
0.48112746344355467
0.47814007956944715
0.45184098465328065
0.45142370225649014
0.4498774037830978
0.4397322380226492
0.42666007606892886
0.4135122948846329
0.42219354250673896
0.42302294049797046
0.4083851820708212
0.3973520153795608
0.40740547083137163
0.4089446946457468
0.3903472077630591
0.40220198469911644
0.42140046952690335
0.45763629152022683
0.4593438657571595
0.4753948237312883
0.5359611645641752
0.5775816661532935
0.5474288509955776
0.515689345045055
0.490946152571195
0.4737171827102098
0.41112797388165634
0.3639947765051982
0.3534540681438056
0.36981704165321627
0.3609869118095532
0.3566806604473117
0.3389885714187727
0.3667247650775124
0.36375320741167777
0.3521065610690017
0.3444259108465819
0.33446008813394074
0.17601367596000586
0.2270078277742357
0.9681795435329423
1.0
1.0
0.37069022322038414
0.13914174897136028
0.054146135360871116
0.0
0.0
0.0
0.05111532240823315
0.2481116033161049
0.31524661067994586
0.3258601542278674
0.3510438620080873
0.37886148680644605
0.3895173103289486
0.3883707325856837
0.39396564704218184
0.40718264732116066
0.4186927656159408
0.41761238924253047
0.4181716511511908
0.45156864688898957
0.4625644761465454
0.4701597543515173
0.47557383275596843
0.5074435102879044
0.5375266046190965
0.5475412592958917
0.5614954497699005
0.5927831994564048
0.6262181101648748
0.654893817360555
0.6729776594828408
0.7133075288593073
0.7503891913320665
0.7758844513228196
0.7966971555387428
0.8261477492601628
0.8515418610712976
0.8530905590804885
0.8669414472679801
0.8715879443432518
0.8674902026806596
0.8357955053535928
0.7867628780369479
0.7360859826138799
0.6844778766833907
0.6376557897735495
0.5772274896148193
0.5360102887988669
0.5092228623516436
0.4890062864344554
0.45897015489749193
0.43482904145190543
0.4345741994391584
0.4370969551142725
0.42320203240780324
0.41720634272888113
0.43239115850069487
0.445098561071917
0.4351842848347328
0.4449865649340765
0.44319403322094997
0.45712472770725004
0.456205763238626
0.4407393051474576
0.4230141998646234
0.4341382100205996
0.43225742152268387
0.4236982811069808
0.4140559046510181
0.41372349163783867
0.4122561948142712
0.40621517119083617
0.39600697067934343
0.40602042655279186
0.4008943207217584
0.39500053586829376
0.3717053430479589
0.39076785859963253
0.4014816221793514
0.39134369278958425
0.37455889788558683
0.37695247382713665
0.3929482407021875
0.38635891757144114
0.363320723789869
0.36858934622937517
0.386682162522873
0.39575251932833266
0.3733116067186514
0.37901673100730554
0.3834586408011461
0.399747944711656
0.40770980262102363
0.4159099310188508
0.44383011375421494
0.4802468047448826
0.5080807778629379
0.5201503756936428
0.5070667941205677
0.5012568592030415
0.4672007221247812
0.4281548410727911
0.39166372369571917
0.36951657203945076
0.35379542225485744
0.3490146250516843
0.34589045233874094
0.3513658864519722
0.3497327087097658
0.34535217733666385
0.3443497038027571
0.36879348416987706
0.3538683709211987
0.2802406173725691
0.13849103454073317
0.3763411767329602
1.0
1.0
1.0
0.3423661466770806
0.2000301578521142
0.10159392276744308
0.0
0.0
0.0
0.05201360942737523
0.21719659957644946
0.3094727983448825
0.35281248975037416
0.3575453032560528
0.36136657752362644
0.3745034351659543
0.39452471788013027
0.3961624520011006
0.38920282615403246
0.39375202603122283
0.41659188086323234
0.42455599644690184
0.4166060170448814
0.41841130716456015
0.4379114197042554
0.45796087006187935
0.4563634548067654
0.46370794308074814
0.4858566169580194
0.4973473992796076
0.499340681758668
0.5143355107272907
0.5436408516281656
0.5711095509922138
0.579214714260745
0.587779808492418
0.6124439553226148
0.6587432340887329
0.6858624549034127
0.7087942835778079
0.7317761207693432
0.7578130843656077
0.7805059747786528
0.786487387125806
0.8075698705359372
0.8353923259174427
0.8439642440732105
0.8252018571065136
0.8016150936236057
0.7846349902163228
0.7605199938954583
0.7214232667092301
0.6717784063629513
0.6299798516599597
0.5851837175202255
0.5560721808951652
0.5178814254432048
0.48378009862814125
0.4778444141690801
0.46706100298623304
0.435803853264762
0.41382370392995355
0.43233710049390445
0.42938090888249353
0.408833204707166
0.4153169820440789
0.4273415805785059
0.41342555682852045
0.4123690578831871
0.42562499427258993
0.4357237802703774
0.4164908606556178
0.40205739843727734
0.42178666859496355
0.4458852373233215
0.42968515978198346
0.40336633263617666
0.3960753945788949
0.39684192300676235
0.40741226886201476
0.3928412970203886
0.37764753023078756
0.38327013842636026
0.39913706494075213
0.3978013349451063
0.3710906686477332
0.3786905893119168
0.3918335385598275
0.38146641833212297
0.3698740763398776
0.36702300464628407
0.38074568995352753
0.3880165507987682
0.360457364479067
0.35443920372734067
0.3771508744740034
0.3775585546413971
0.3641363415725304
0.3696530280972369
0.37532541982029605
0.3726436781001221
0.3656660001098829
0.374146877731574
0.4164485238055368
0.43041331546763234
0.4347426931306627
0.48571101348040263
0.5096876944906797
0.4882343920375529
0.46657481209991064
0.4383039918601955
0.4027804312824753
0.3686884385050184
0.3695622452558216
0.3514334457097664
0.33200509341004925
0.3381662388775005
0.349567277238367
0.3420945275826438
0.3465561078891065
0.34582608890457955
0.3328014184294489
0.34009499976465973
0.3130409458820683
0.18914104810391025
0.4016848511354919
1.0
1.0
0.9639822374050343
0.15098878143435748
0.14725232580271702
0.06901552281901084
0.0
0.0
0.0
0.027254456827586447
0.17797077588260093
0.29876927783126
0.33845881466490957
0.35287747768481803
0.37959197937052613
0.38759106415767547
0.3949670225908382
0.3995839528570315
0.4027791155588532
0.4143151470457802
0.42636398077345516
0.4159645307584756
0.42515957101429863
0.43918468488772244
0.4673718024038461
0.44832335284286806
0.45012307862868745
0.46556231835403744
0.4766088559622196
0.5051181285733644
0.5062882259059013
0.5131350128723459
0.5439882552272282
0.5518025694956141
0.5586074539638682
0.592663616075518
0.6168129530454849
0.6152352345038704
0.6344953124731088
0.652311429744727
0.6746020675843315
0.7073256255779125
0.7069783943859728
0.7108235169892547
0.7523550729403254
0.7712535684902422
0.7507271238278269
0.7301980884747156
0.7301788693724891
0.6914319397220229
0.6401268482951542
0.5965899601545014
0.5496630217437989
0.5340162883546722
0.5012791598849706
0.45979677748238634
0.44345849162838585
0.447856205033667
0.43446364946541616
0.42116041863323594
0.43002234620449703
0.44467181741153344
0.4464600574324429
0.4370070392272954
0.44044845589381476
0.45213870342897444
0.45072686719160054
0.4360105878409802
0.4291578049084677
0.4361581690993594
0.43102100318828224
0.41075885480771224
0.4053920008819631
0.41251153458796636
0.41490919223629597
0.40420700632245055
0.3902186415515467
0.38568575308702757
0.39430591263802806
0.39121925299877097
0.383843982810678
0.3832677395616271
0.3900543146816389
0.38398433046477537
0.36990666251896165
0.3772883572701871
0.39715475431793645
0.4082762326185705
0.40835985170886413
0.4288133410351609
0.45196376832792795
0.4752576001774796
0.49749130713494305
0.4889469908497646
0.4836506877541288
0.46858325963825365
0.43215621868663695
0.39865030536564033
0.3855213658167803
0.38259685803579613
0.3726737926511678
0.35823273585239396
0.37141632723169044
0.3715698946941157
0.36288065991492313
0.3517916413792847
0.36646234358192376
0.3630248502307104
0.33769860381122063
0.2160091291340111
0.3190951637580501
0.9210456735121667
1.0
1.0
0.2859060652274933
0.21289906324426006
0.10252858146554411
0.0
0.0
0.02461478335054972
0.19192013823394993
0.29918168599423567
0.33257621907355833
0.3664609226825668
0.38086278154435826
0.3821344369959415
0.3767032794828531
0.3986602791312909
0.40242311210564896
0.40767376625436136
0.40219890069877506
0.4093842751890932
0.4291440917595091
0.4349282829344032
0.42711822491784834
0.4429224824991067
0.463770562231391
0.4678282898189886
0.4719614519725188
0.4892945344579804
0.5167068920268147
0.5292870182959011
0.5365168704688645
0.5504361025656193
0.5809279465519795
0.6057239746856287
0.6159218209912758
0.6387698721420775
0.6590913050808697
0.6811354609397811
0.6844345328459093
0.6945091353948943
0.7153972066467752
0.7338203161225516
0.7286366640629125
0.7199500192492213
0.7078296113399343
0.6887263746063095
0.6449447517785629
0.610575294527662
0.5765141874781644
0.541007649532734
0.5124156403042505
0.4841004388583917
0.454620195157181
0.44965793589459546
0.4391809702399726
0.42551013423403167
0.41573435766469374
0.42103544447666064
0.4237102408180962
0.4178808674322447
0.4184973733627819
0.42361759317647385
0.4364886895213339
0.4326617237414775
0.43238730491179894
0.4406917364491208
0.44769485491102134
0.435641880321879
0.4280798332411301
0.43496809128264546
0.43691707976510497
0.4254414865182309
0.41635039198319185
0.40969113918415034
0.41943768728858044
0.4203256667384042
0.40587688514773956
0.40203143738402913
0.40974270720289396
0.4065048268072121
0.3943371828549479
0.3973855536853284
0.39461595211411116
0.39849920413253476
0.39493316995930516
0.3920060112135728
0.3968228876152532
0.4031668892627346
0.396521523490605
0.3927332665795831
0.39273895610463355
0.40435633185495573
0.3969466686416703
0.39732420331777896
0.4056676331697101
0.41110324475971255
0.40241165943714946
0.39693811730616474
0.4006243339930302
0.4229481946130914
0.4332720977788952
0.43742290546925205
0.44601179053305673
0.478109325188638
0.5069577355359439
0.5105877597576013
0.49593078976858573
0.48177416621314506
0.4603982069974795
0.42254611398302966
0.39785656669675723
0.393003328758606
0.39861394884587636
0.3872755938206415
0.38042472639678176
0.3914767094580519
0.3991257346664677
0.39630689858556156
0.3821218820578521
0.36756592786296255
0.2687987795995311
0.3272973613614195
0.8481601026808292
1.0
1.0
0.4448644524489692
0.25823740599252404
0.23174394433286682
0.04832508771149886
0.0
0.0
0.11041325946502863
0.26810030025469617
0.35067132452932326
0.372971924118035
0.37954556983035703
0.3974020729915623
0.4152912019541426
0.41310008042977253
0.4104713275827544
0.42483033049811925
0.43762169079961055
0.43381001972443123
0.4321822187275674
0.43990151088319235
0.454762679892956
0.45388556898074767
0.4503226524503881
0.46095373370546344
0.4788423497690693
0.49084503208912994
0.488662201692658
0.5046139047803178
0.5255927318685818
0.5432944783872061
0.5536839523664319
0.5638426651800501
0.5871241920424957
0.6139773246191419
0.6249693183138656
0.6440747372977392
0.6712412185348369
0.6935105705846288
0.7046589630389727
0.7128231503322023
0.7325762435761055
0.7520610025564316
0.7583048972698616
0.7520435321749865
0.7662488289686253
0.7686757188234877
0.7417444012873661
0.7001559080899646
0.6603434678438471
0.633147075998647
0.6061246495212552
0.5645211611144504
0.5385263578661958
0.5182541666910198
0.5025924157960666
0.4777800449924655
0.46065466925342663
0.4757609057070623
0.4733758368138859
0.45207280605480377
0.44401981996845646
0.45633326402074
0.46075109915749046
0.4554358974690359
0.45470432457449805
0.4593371613787777
0.45643063015538815
0.45129329976444765
0.4458756811503871
0.446378406688294
0.4559064564028531
0.4368724403578687
0.43253345587712816
0.43721880549663306
0.4534939091178164
0.4334742868017519
0.4162588038646211
0.41440649822997244
0.42623988533245366
0.43165453417980604
0.42946309285415607
0.42000584280392744
0.42848818518792686
0.41916331376699334
0.40672799808828175
0.4096519450377487
0.42546362796472126
0.41441462935540513
0.3978430432485185
0.4079400830090911
0.4110067068980795
0.40535854779544256
0.4001111355189101
0.39555902724129766
0.40332629239414697
0.41887279526795024
0.40883770642673234
0.3982027189627978
0.40434602715763496
0.4057653684949732
0.41140220751286904
0.40251972548203313
0.4034296789730335
0.408876894322926
0.41086836236951907
0.3993751244969853
0.41647460950493764
0.4481617267944432
0.44901705889432364
0.43988490978606765
0.4607751865524482
0.5096830570802207
0.5221362712776814
0.5000745036146237
0.47558640232772886
0.4582205819033778
0.45312909300598864
0.41949009901419193
0.39332142194308656
0.39199615862919934
0.392084251175405
0.391269201780274
0.38301928672152624
0.38819896703507395
0.40307532172309185
0.39283483480619
0.38449220154560626
0.3749771920242456
0.3481914500592757
0.2669605982267622
0.512014474020597
1.0
1.0
0.7056508321717191
0.17915966024163082
0.2222713538903492
0.11983680006560045
0.0
0.0
0.10736070667798839
0.2555056221685051
0.3725396833254293
0.3940475880275272
0.38775996310018235
0.41827336400013504
0.4327478130443662
0.43239097638957735
0.429920264051553
0.43222071178486565
0.4473432217273875
0.462085141807069
0.4503403335678239
0.45845987249619996
0.4744586186769387
0.47624301609064573
0.48886719825938146
0.4947294945035596
0.5126033549540525
0.5256192401115589
0.5187700350742201
0.5276097782300899
0.5567331467736263
0.5714594971473334
0.5716809268625651
0.5754437990659736
0.605122515686544
0.629987819426486
0.6435255270199572
0.6444265483303127
0.6592471015220472
0.6959337010136875
0.706098145823131
0.6989581208466601
0.7131454047101327
0.735286948367162
0.739260820166353
0.7072957201321751
0.6735482026035859
0.6461177424910314
0.6307671861901571
0.5888451838611163
0.5525191883632342
0.5397533142758343
0.5230645253281823
0.48820816289560653
0.46925336135069023
0.46928789761360956
0.47605572438641913
0.4588395068516592
0.4544324141445129
0.4586729717065299
0.47336297092984214
0.47006082709870806
0.4672931024647882
0.47140432583607234
0.48036179822726927
0.4736694746078583
0.46134693430773377
0.46444642999457136
0.46137053156754665
0.4513993267125234
0.44264848773389176
0.4334690212215001
0.43996724459663417
0.4315870692232508
0.4273128115624041
0.4180784536921463
0.4161605532992597
0.4230215465241656
0.40781237307271845
0.4054732463494187
0.4136682120608592
0.42309615037576875
0.4171355362107095
0.3994464544846049
0.40359633995782174
0.4213724740748555
0.41216871015353895
0.40406141032664883
0.40715423272321594
0.4323181863569824
0.44334019902952065
0.441297565112026
0.4537310384008668
0.4890627633283695
0.5104806294684552
0.4944308033872459
0.4714083524865137
0.4664866072041409
0.4435263021149744
0.40429347666127124
0.3892721440524166
0.39590651720282805
0.3976308164661858
0.38255777525192736
0.37461460723677115
0.3810854155295484
0.38982783087394496
0.39307009755599825
0.3819517851963661
0.3574368019345159
0.2671911048914956
0.45929347729777403
1.0
1.0
0.6521463685532207
0.25099809208735413
0.22212310420322462
0.075628486767953
0.0
0.04242081985668378
0.17533052809624242
0.2975140846563162
0.3696632937444987
0.38938869517149954
0.3967264182244781
0.40098052679354507
0.4193722689035483
0.42839174289713267
0.418725949519872
0.42232496765976524
0.4315830525710037
0.44188396749090303
0.4410791939983226
0.4372075062138915
0.453039469481895
0.4681800541124626
0.4740638665644509
0.46622060787970393
0.4845670546087004
0.5064668001195523
0.5117278859860265
0.5171064696322568
0.5356961756457808
0.5574430590820887
0.5742653029552419
0.5840576827997548
0.5960509776734759
0.6186469961160848
0.6432974417309552
0.6567898009030709
0.6640909356972753
0.6827611200543118
0.6935736936723305
0.7044978310671828
0.7038741155139812
0.7096361038716082
0.7075214688877324
0.6878979650747984
0.6520589727293956
0.6344226568053521
0.6094629329584583
0.5699557695584115
0.5369836038689759
0.5156581990858962
0.5039044974812892
0.48286785715705394
0.4655614371570677
0.4541571594075223
0.4574314784319147
0.4556907437392578
0.45090977409393646
0.4496446420321325
0.45770796368944566
0.4640513195292554
0.4596652598161988
0.4553927069380924
0.47353177687094317
0.47728901828676273
0.47286680123551844
0.4688645198309696
0.46990603510660645
0.4749367325300532
0.46687286998259453
0.4578411285917503
0.45473430303342594
0.45626574011721655
0.4517180025228112
0.44342262765063756
0.44020164278765694
0.4473361803481257
0.4420508618153921
0.42924070481975096
0.4358219473156262
0.4387062987514641
0.43672739547984046
0.4240245325895987
0.4232032708539822
0.4323323068971133
0.4384025201044392
0.43230818835006274
0.4261099806237982
0.4309571934192136
0.4311674862829876
0.4278877406261975
0.42249592239734096
0.4281703144605034
0.43199766971057707
0.42699078322083556
0.426902917832033
0.42918319031492097
0.4391660773989
0.44588366122129275
0.449551755213305
0.4638319415786497
0.48022256112997985
0.5008016565519756
0.51339732790981
0.5255850767685015
0.5205988123735082
0.5094661287828123
0.4897731827731632
0.4700122410897542
0.44848296472144283
0.43890019228819765
0.425146200194768
0.41252439668847546
0.42330705875423413
0.4246369602847485
0.4200210242657896
0.4202708268828498
0.4240420791723379
0.43412084699865827
0.4300753061229403
0.38883004784823283
0.2970513310068462
0.4096405070664343
0.8916838632875093
1.0
1.0
0.4656536787693308
0.32825162567072075
0.2828380942801282
0.11393659018152302
0.018510199363414425
0.06761934384310883
0.16696662067113727
0.29876800604355935
0.3851287394272337
0.4262140163034555
0.4275647736600793
0.42934339223622703
0.4490163763844356
0.46442416185304036
0.46004704444116074
0.46047366636556736
0.4667639261323983
0.4768955378126362
0.4767387286818451
0.4766854073384218
0.48829249930802954
0.4945182205262884
0.493462793021616
0.4946867897229127
0.5045693102166366
0.5162738651862634
0.5265222638568896
0.5384854033728456
0.5508025332292922
0.5703175057771206
0.5883604470208181
0.5977209360779505
0.6014105903514391
0.6296026102825513
0.6583042353238671
0.6617062049022773
0.6721540655527025
0.7161729873725692
0.7363649205613403
0.7385265493627536
0.7357431800172543
0.7473079756392689
0.7682527776933881
0.7741774296592434
0.7558057312652237
0.7383886118713521
0.7340515587641333
0.7007519613806684
0.6661056458124742
0.6345000062368036
0.6073582389924221
0.5849593037653602
0.5637008752394039
0.5359373528732851
0.5284298560870543
0.5156679137852155
0.5068000694238979
0.498105752061488
0.49670156655277714
0.49976768775963337
0.49434767475387975
0.4857078557281521
0.49364753507974185
0.5089143257451966
0.4977931059870294
0.492272680557907
0.4971132881876296
0.4972959633619129
0.4996383497990188
0.4924948732730844
0.47748697047451916
0.4799917625232144
0.48595063391563553
0.4742934521952512
0.4755540618321584
0.4800708222875735
0.47653309011747247
0.46858170446415687
0.46789404230041215
0.47844916770239737
0.47545978097104025
0.46462550375542355
0.4565504806510063
0.4657263927827179
0.460643938067689
0.4657295833597697
0.4614924312522658
0.45962879710176835
0.4665401418806943
0.47829709970298867
0.4642027977827814
0.4625799942583303
0.4724794704337734
0.4789687198533863
0.47309891186505615
0.48492072873861386
0.5114910073466467
0.5307296118384223
0.5308944420425096
0.5434200670253554
0.5468738184712889
0.5397413716905042
0.5192892616740001
0.4849513696363375
0.4669893082153241
0.449777032233359
0.44520350716246987
0.4443943631734298
0.44319346047477326
0.4501671091147436
0.4532495863946303
0.43852613103029936
0.4401650269023983
0.4499388445506295
0.43965420841238256
0.3829758873052259
0.3268351706629103
0.6266145727961153
1.0
1.0
0.5051977877369558
0.23293953814020124
0.27222915668458497
0.1353614020147614
0.04995360478586965
0.11648406736378311
0.23149654835986372
0.34898105167565385
0.427265284022289
0.43804819276723306
0.4632937557598157
0.4595572144942056
0.45507001404387637
0.47175491303881645
0.4794514333970423
0.49251540769520236
0.48429164147500503
0.4908830606502351
0.5040118257749512
0.501858671977087
0.5029476022609594
0.5091574821703949
0.5285495875322914
0.5404196553558879
0.539099352529154
0.5505386202713256
0.5692272108464429
0.5809590097579959
0.5917115544959215
0.5981750951802698
0.6316042956382162
0.6542736852518014
0.6558057799523531
0.6734807466416677
0.688755753487982
0.7049899171277993
0.7055876317414015
0.716834765344303
0.7382315464896836
0.7486454791182129
0.7397805156141943
0.7107628767472896
0.6986031537572236
0.6767249521076544
0.6455246981000633
0.6040499686784776
0.5769554859772353
0.5556031256213361
0.5295644807279771
0.5085794701506458
0.4990948602061077
0.5003126268300828
0.4880250990033653
0.4775224436388714
0.4771475197461898
0.4866932143373786
0.4901557398423157
0.4857613985155008
0.4842782555778732
0.49944399039053433
0.5019197323702145
0.48970616598964334
0.4882377993970657
0.4937138673529666
0.49200192978001456
0.48089559710788016
0.4719276159878339
0.474719714624535
0.4742447339825757
0.4692795832548528
0.45666778899979094
0.45876676557007084
0.462768881064031
0.4557976854545765
0.44748989748964546
0.4440517614078193
0.4524066806596495
0.4533266554907371
0.44479961744523333
0.44380693374725866
0.44523860212142025
0.44008121598606564
0.4520719031815778
0.4561018134654404
0.4799034984370379
0.4872631336634717
0.5032175420195057
0.5222371456905486
0.5385542716955168
0.5172944778747787
0.49488897291653916
0.4708349510237427
0.4521604386269676
0.4342007450758937
0.4231571381303455
0.41236451233764554
0.41097215018631345
0.4149821580341039
0.4116272263001382
0.40306062607404963
0.406592063323172
0.4157537349962954
0.412442056309798
0.3335160108960717
0.2921540664356709
0.6386934373918778
1.0
1.0
0.47413842327369843
0.2766959669323449
0.2469326806572833
0.07915083673638881
0.006004204857373896
0.07899066290790184
0.20357303737519789
0.3175140075441488
0.3720901933062185
0.39887878437895086
0.4189402805490869
0.4270344421626534
0.4227627819699606
0.43397856357345993
0.4454241306763661
0.44474234941760926
0.44179773262157085
0.44328693427902816
0.4608450620110676
0.4684022132448241
0.4648449753760321
0.46836379584471705
0.4799028209162686
0.483658997679539
0.4841862106460771
0.49903271063931315
0.5173098328276685
0.52729728103971
0.5277954166354479
0.5327316647210147
0.5566052145685324
0.5736518261441967
0.5834307055031906
0.5935499048646278
0.6156773101918995
0.6394265325925766
0.6490589981876862
0.6595269864806871
0.6745061556324015
0.6899251313288245
0.701827981798117
0.7049596532573913
0.7085587942973082
0.7172564160812701
0.7081779727552097
0.6827908812951635
0.6556614570675966
0.6330829887711371
0.6025051662183789
0.5659049439346788
0.5321097490660672
0.5177543329437472
0.5000861565027949
0.47343141714249004
0.4648940483678299
0.46149504405509767
0.45914685792214405
0.453734709491094
0.4496743734023568
0.45558774470300945
0.46179097333955904
0.4594880605519851
0.45113081706961256
0.45795168335922154
0.4656750625955408
0.46524622537005256
0.4568203753701098
0.4567994928270319
0.46247040341812307
0.45905088918585923
0.44933482967000077
0.4427706094560738
0.44786732658629863
0.4473782016720464
0.44126206278593133
0.43735895797832736
0.4395640861746224
0.44136504684429784
0.43671642723594317
0.4276543901714283
0.43694996228370336
0.4419790978437358
0.43894841566383047
0.4342401913179491
0.44040858327842736
0.44632255590554415
0.44038516482803625
0.43265200471754744
0.43850082997327205
0.44474071039415064
0.44474249279746425
0.45016608790903223
0.466314207760817
0.48581380377325284
0.49945761441150094
0.5168676559883638
0.5361783541366533
0.53955820061743
0.5227599823728095
0.4971721665399135
0.47912144332624534
0.45808894592172056
0.4396619577621023
0.4342039097795201
0.4212577460126231
0.4221791506060183
0.42715319344877195
0.42653699353740865
0.4200469614563513
0.43107899756035495
0.43189344963600573
0.4339812148057255
0.4061801926694465
0.336621377582252
0.3120748248185492
0.6561811032781621
1.0
1.0
0.7358627235427372
0.32089039625832766
0.3302619790169327
0.21681879880814575
0.058982074381646044
0.02771171546866693
0.11615226719555757
0.24236761813218877
0.35773079520361445
0.4022273049007551
0.41384999867483013
0.42452732742102794
0.4369225205158065
0.445330372543861
0.4515516777095737
0.4504600373139672
0.45840784969254694
0.47023542850189665
0.4642654728538044
0.46364231039218995
0.47191721621079674
0.48232294144812143
0.4916036145343904
0.49751825563680663
0.5073631519006087
0.5305420023179028
0.5401247484566707
0.5346696041197612
0.5514286717300128
0.5676842286075137
0.5846989792547014
0.5992120589137252
0.6131618236194969
0.6380053935080477
0.6663719860741508
0.66997239179533
0.6841116868947406
0.7187061335654539
0.7393916265281337
0.7379295364244817
0.7435664228081706
0.7605260985575546
0.772897379621921
0.7660996756127844
0.7413851194236226
0.7270511221819447
0.7032329437398179
0.673763966772508
0.6389431647311257
0.6059376222771882
0.5869678957005752
0.560820671597505
0.5314782387710163
0.5190684860664944
0.5171890127341836
0.5091710724068332
0.4843465205337637
0.487947749102414
0.4894871573608241
0.4923957940275808
0.4869929491450943
0.4806840070995693
0.49116225212037046
0.49101350666575716
0.48540665555372076
0.48061764650355726
0.4816353604292205
0.4864558681782475
0.4811064608052651
0.47403669842324814
0.47917859570148524
0.4818934128952428
0.47225062511287924
0.4689464058856653
0.4706705679004922
0.47847398146493675
0.46778207634457225
0.45695183615843316
0.4652191321998201
0.45368015466679135
0.4532837862694838
0.4583265984877099
0.45852287714838036
0.46024895071318134
0.46590976995261046
0.45757438138851
0.4402372070560368
0.4513549537431317
0.4673903236228167
0.45801442041828244
0.45257590520073093
0.4613300824708368
0.47348910808274686
0.4892708235384263
0.49764067999580464
0.5114231276998439
0.5219105480281367
0.5476573271563301
0.5599814675167388
0.5536708483135633
0.5408452725585396
0.5189000983595716
0.47338972132539947
0.4539358926148915
0.4565814205200277
0.4498127217044131
0.4449852275766631
0.44569238223985375
0.4513075770909788
0.4561433661587021
0.44978817020901535
0.4431059345262571
0.44308375131938404
0.4286442451510208
0.3290872524394058
0.4853252204819488
1.0
1.0
0.6892559741889867
0.2447039249778494
0.28666657011815405
0.17323795695279648
0.06306120544713059
0.09266116640210705
0.21769456550115854
0.34823409852034304
0.43144880071734304
0.4434666301415405
0.45299285181332766
0.48229724494203696
0.48782993135859387
0.47381575682241434
0.4867445689696696
0.5024552088888169
0.5127861376735858
0.500862596033423
0.50495728663346
0.5245322733497355
0.5305453259479428
0.5250088603925799
0.529298561873116
0.5475443012439325
0.5722066659800837
0.5755088906129003
0.57788755962745
0.5856041930005438
0.6057917000231102
0.6363080626360722
0.6419655471551797
0.648856023849872
0.6769078448393463
0.6865127105908313
0.6934641934806391
0.709434004152043
0.725722321630286
0.7302642250521696
0.7379149216415477
0.7538260445618772
0.7696571664465435
0.7802823560354358
0.7675107212613609
0.7439132120261963
0.7289988479571392
0.7052187127826091
0.668878653575333
0.6319067596050121
0.61423153523153
0.5882230191018479
0.5663269270990349
0.539963391083712
0.532390897548956
0.5290306174566634
0.5221022557869193
0.5093117753819518
0.5167609546130782
0.5355069958083066
0.5272690667984241
0.5257236004347418
0.5236773382412117
0.5351304117622459
0.5320866006925131
0.5268763048108989
0.5283701702743977
0.5323443834760957
0.533971269794949
0.5142447236855167
0.5061799808738537
0.5091315596462959
0.513050884946519
0.5030949682841257
0.4936383957849326
0.4939053594674118
0.5022863177331149
0.5001477197596185
0.48805238984084254
0.48764172551211027
0.49095621025372305
0.48559780204699077
0.47704052859934326
0.47170289456668185
0.48642096879758967
0.4798168284990593
0.4799036437236783
0.4862266886928334
0.5137222988967427
0.5248786372951164
0.52815720707119
0.555703816053013
0.5831120609708239
0.5786745097886496
0.5543436813370192
0.5333707680742406
0.512990085364504
0.4953563254937226
0.4703106746763296
0.4609686022252058
0.4594236482061381
0.45917920737774826
0.4526068647072389
0.44634175923782166
0.4453321128656557
0.4606040114362157
0.4654921877668148
0.4507775224199678
0.37241418388093156
0.3477995008695018
0.7550547751320498
1.0
1.0
0.49590474929558653
0.3156068289494339
0.2579748721567264
0.08532184987554876
0.04173467828498243
0.15911176029793844
0.31254528254023894
0.4075339927279975
0.44917686145463076
0.4702026760031276
0.47499233685362796
0.4795751560349954
0.48530912034243406
0.49156612831955393
0.4924441199922889
0.4917549690254052
0.5025694234184488
0.5185429118745024
0.5208253817528541
0.5223278419761586
0.5264013721726343
0.5379398670451648
0.552073836495951
0.5522072388033819
0.5567952593853797
0.5838941585999479
0.5966778305871512
0.6054680799662531
0.6139948761079002
0.6341791198062592
0.6518717478380751
0.6721917624376912
0.6900702697193051
0.7201484313647395
0.7395577850273308
0.7588144085733148
0.763874851959602
0.7830400912309525
0.7965980065815159
0.8045977933847063
0.8064205073843453
0.8015318242552347
0.80744372959148
0.7825853581227864
0.7475783369753533
0.7204869241017103
0.6891289399726543
0.659322590003642
0.6223397689732979
0.5951635921699203
0.5770746168236316
0.5611703832946606
0.5384735674326591
0.5224967650525592
0.5254749501220917
0.5276008732940849
0.5193997462532269
0.5086482155804645
0.5213345903798412
0.5374771214991674
0.5304717770799467
0.5182600871590765
0.5196401644145913
0.5389173251596572
0.535836411809143
0.5236024929842615
0.5236739278222571
0.5311499081491449
0.5249508376013531
0.5129600015041029
0.5118482872849788
0.5123944658598545
0.5160485280017645
0.5057258933760911
0.4944185648082019
0.5061390449106943
0.5103687431647053
0.49888247992463947
0.489293694826467
0.5005005315130248
0.4961933001941037
0.49504964012257363
0.48506307724331743
0.49508374493169666
0.5013932227403426
0.49406160032924273
0.48447535551687937
0.49500876701927377
0.4987428328214204
0.4927309120001784
0.4886298300242375
0.4904865157458267
0.49687483815227795
0.5016252474000187
0.48845598806455987
0.48541317755371305
0.503866995963058
0.5191479667775589
0.5232790236972528
0.5354567070214535
0.5512393547412693
0.5733970895014017
0.5936069067832507
0.6002050730120256
0.5952178625479191
0.584741420068802
0.557179230526417
0.5279227827649862
0.504531421360398
0.4975295349321696
0.4865758768090269
0.48233940523156293
0.48741510066624016
0.49319422438796534
0.48687161598511064
0.48295331076483067
0.4823471539399926
0.49640422796153827
0.4949362768897957
0.44718951514921496
0.34096823327919484
0.41774860440034295
0.911928630650429
1.0
1.0
0.6193274566406728
0.3696119619071254
0.36106443858735615
0.16917955223258224
0.040007778860529974
0.07554260662566889
0.19811009013542233
0.33140768236765955
0.42767571457530834
0.4725477257588596
0.48363557903673204
0.4873295383981849
0.5061995161993332
0.520480726130752
0.5246777286548183
0.522847013891799
0.5257864030833719
0.5378717945448412
0.5405430176519248
0.5362942364096025
0.5419409089889932
0.5638306929229903
0.5687477281997814
0.5700965865751968
0.5773431162616387
0.5904041125930131
0.608550724614384
0.6161752782244646
0.6184039710644126
0.6444569502909288
0.6689506936096329
0.6799729023774309
0.6872321109476032
0.7144215081626639
0.7401107389651693
0.7579756202142042
0.7748680486542675
0.7933285082362695
0.8164272372510848
0.8224206802695957
0.8315457205744676
0.8488362034919319
0.8641903322314313
0.8611910017243799
0.8472699832206242
0.8239246405935556
0.8061080359423552
0.778028090103109
0.7402548434181165
0.7021368464148608
0.6728914881186531
0.6413158144844713
0.6033981179386527
0.581940228946178
0.5902844493789223
0.5815671461375078
0.5629367253766919
0.5507303200916589
0.5538070926271617
0.5566822960938534
0.5536808025259651
0.5477281709993609
0.5619521863028388
0.565263295216229
0.5571636964359475
0.559722232012068
0.5564387375315349
0.547027260495349
0.5514418915421992
0.5384667870999006
0.5271395804891338
0.5245234022899441
0.5347061086041395
0.5333309626428822
0.5178550061790406
0.5213461168948456
0.5290362746440753
0.5209135247649103
0.5072694321401766
0.5089903118169745
0.5163625079550803
0.5200826440683662
0.5106646409769066
0.5017512572039989
0.5217808631488856
0.5197949745681878
0.49816617320031265
0.5029700993336188
0.504169217913104
0.5000156248020531
0.5070100124352251
0.5117511073665443
0.51531993551141
0.50117599283832
0.4940282921417306
0.5053759960510857
0.5282496285327924
0.540559424845514
0.5408954985035217
0.5377252508773791
0.5666413047825579
0.5888641123256629
0.6105821135322715
0.6188995398668761
0.6182870189660676
0.5831263268417992
0.5567478446607982
0.5408768731746075
0.5096862117617753
0.48368017068006786
0.4874136628446569
0.4834604589261751
0.4922641994855498
0.4860591295449927
0.4807299893632023
0.476426089731709
0.48040407120308276
0.49631056019388076
0.4795127903806916
0.3639566342864922
0.4071820197615715
0.9637723543248512
1.0
1.0
0.3441164533343599
0.2717682065022302
0.23880367689858492
0.07187676679063744
0.017059116345734447
0.12040715797430832
0.30123402631074353
0.4316462957810655
0.4742074491161466
0.5003382363721948
0.5067020050441129
0.5352702386665735
0.5366636592958087
0.5379421825419612
0.5566806608994362
0.5615881535388427
0.5453649924870482
0.5493210554521004
0.5815730246548035
0.5887443672269588
0.5830788032889551
0.5946138873446376
0.6172501454648825
0.6160965527669077
0.6311365292477162
0.6525509967715112
0.6543465785466979
0.6703652507750097
0.6709848412592795
0.699215794709696
0.7481154629195558
0.7502868395495206
0.7468537562994064
0.7681867710806383
0.7937882959031772
0.8105811299614849
0.8195770952515063
0.8331279278793883
0.8651331660615881
0.8847767780238106
0.8718940044158119
0.8568822491556538
0.8494127170879452
0.8444510935020226
0.8190694610302774
0.7668945507764671
0.7304576012963467
0.7097998672489737
0.6837538874739797
0.6410942978284442
0.599537419468023
0.5998124789218087
0.5871277347382009
0.5728245024761831
0.5608096896209361
0.5580848882301412
0.5685972283748643
0.5629909078398823
0.5586462208688409
0.5658939888043115
0.5771925479698505
0.5802140596428585
0.5728564936489476
0.5727628280354321
0.580678203123811
0.5744015275918486
0.5550254957799073
0.5518933853768893
0.5641308201804732
0.5533991856574728
0.5384352920963063
0.524897830985882
0.5384779323768186
0.5425813785021392
0.5175613509884573
0.5123756554177461
0.5171985777185413
0.5230432908781262
0.5183320421001598
0.5102711980336226
0.5123061831948614
0.512047909301107
0.5131632022200485
0.5029503803664721
0.5012636272988472
0.5017897494535031
0.5036981783080496
0.5007725587571581
0.5127622809358743
0.5486621077364615
0.5592482194915076
0.5728535219550099
0.6000654673406569
0.6034577868991157
0.5870274136545083
0.5546460175431209
0.5258290511170451
0.500397943735009
0.48312370734550525
0.4695696878248318
0.46030294165495994
0.4667623391197921
0.46707771344155835
0.4591507339515001
0.4482282293601657
0.44383237634912975
0.46307505646088876
0.45988955515393987
0.430607717962505
0.31432906878025524
0.35715951050111905
0.8988929308505721
1.0
1.0
0.499284213834266
0.30143215538349927
0.24584029768507612
0.03688384930673268
0.0
0.019041415723246934
0.144728634377097
0.30444147199466925
0.408459506896528
0.45345022310094085
0.4560331132031787
0.47198526072873115
0.4886165225649677
0.5014109960349511
0.502978502944736
0.5009752544408286
0.5090563038795904
0.5242473349378165
0.5247841853443387
0.5188883162446449
0.5285038604749888
0.5487888884681807
0.5492029533742057
0.5552957855009215
0.5601262963881715
0.5805629019661158
0.5940897753860109
0.5988312416398858
0.606581932698469
0.628020282627691
0.6469142190684734
0.6538738978361545
0.6741963006090783
0.7079306379806546
0.7341101640757495
0.7497493047882487
0.7635524718384252
0.7875810254412807
0.809930269630288
0.8198991880326052
0.8241486553257849
0.8441430485730562
0.8522712553199255
0.8369112336050621
0.8079928486356069
0.7859074714540576
0.7607697026281743
0.7132954601282839
0.6538476411430039
0.6163116697517748
0.5864353960862123
0.5543921455569785
0.5229194048871119
0.5086431812821324
0.5086734580049983
0.506111030873681
0.501001974223288
0.4989622043896926
0.5100914920588002
0.5181928947197022
0.5157691746127624
0.5122120810369658
0.5256464527271734
0.5317493021108909
0.5156800028042674
0.5163926152527069
0.5162985598730616
0.5173684448882119
0.5083423275506515
0.49179245386870446
0.49116566692909885
0.5027527802346421
0.49264268027682523
0.4842724704952931
0.4781172052960024
0.48186916599658547
0.47790000577239666
0.47023099061173745
0.4646210918554449
0.47053394073064825
0.4735244813281808
0.46263785614253805
0.452416578121593
0.4659213265477198
0.4732000819102259
0.45551603359534704
0.4527255997002215
0.45939371413165275
0.4650750120718641
0.4599515754092887
0.44708300639622733
0.45714734056818873
0.4695534758295902
0.46298317730360977
0.45517982023092846
0.4642150397339148
0.49767145593888784
0.510446339492671
0.5120749296328793
0.5275598266140873
0.5641688265135296
0.59135116156282
0.5875227187284333
0.5607127333553502
0.5582069344114411
0.5332801353177596
0.4848232004453532
0.4545015339031651
0.4467431456682406
0.44523566491629285
0.4397887087592777
0.42741153126761844
0.43715817897653286
0.4480320814759704
0.43487386184803223
0.429650779280495
0.43645374810383225
0.43417399930781847
0.36102412639423187
0.22815986853843184
0.5061508790966129
1.0
1.0
1.0
0.3173052982451475
0.2670004150344535
0.12574573267195008
0.0
0.0
0.023649039429449292
0.21393617419649616
0.35947177877527736
0.4055321885400008
0.44042719920856105
0.4631016739516518
0.46587231941855733
0.4602467428590746
0.48317984032064193
0.48939964787303347
0.49021686426366023
0.49115498970372623
0.5193827678700004
0.5278461342388278
0.5299697179181515
0.5324911318594758
0.5491369231604915
0.571281358457664
0.5723399490440508
0.5756280417806791
0.6014705650231542
0.6309832092768137
0.6503300902974434
0.6585535431319907
0.6786193491951484
0.7062514083043034
0.7459103165211431
0.757094006166044
0.785991401331178
0.8161957624651082
0.8541028233359779
0.8635074171817754
0.8738577175608686
0.902182533582874
0.9266055326217266
0.9308671813454781
0.9224588092955092
0.9222173151413198
0.9155654045149435
0.870863030589214
0.817892692396374
0.7870934381193105
0.7488908802372345
0.711643469163258
0.6686633383968261
0.6296676557489995
0.6024264737015644
0.5722527619350579
0.5616711413152674
0.543063337775778
0.5497248250316645
0.5480760105026169
0.5327572065038203
0.5182248729275842
0.5287408072003157
0.532663862520648
0.5383174089080971
0.5221372120485707
0.5292393550715644
0.5298978993939903
0.5199053598160341
0.5152289003877446
0.5265813934726091
0.5364594241736421
0.5305954264050039
0.5200565920706771
0.5259971843458335
0.5241776078091216
0.5096411209269425
0.5051445379339892
0.49718044969200453
0.48988057600640983
0.48775853994240104
0.4718319996127849
0.47561973488791864
0.49936733082118206
0.4822508027782953
0.4551916011611878
0.4587280568262825
0.47812567432697933
0.4766831515087838
0.46437935439473543
0.46894945264252
0.4811462038952832
0.4703138706505121
0.45264727296204355
0.45875829147416125
0.46702275654638814
0.4739032244971174
0.486324033251071
0.464021909248668
0.46478364261903266
0.4906838952244478
0.5142665089044122
0.5237325306160119
0.5377132645802638
0.585820411877069
0.617143584700457
0.5936880016119706
0.5717722145846966
0.566313184353578
0.5217804898593528
0.4758030721988275
0.43274111283630246
0.452583659565874
0.46339434442672645
0.4386267230651656
0.4352703490193158
0.45571906473413515
0.44654492355072417
0.4466754038876484
0.44694912066701364
0.4304159677148466
0.2998301266530514
0.40991527501522124
1.0
1.0
1.0
0.25355554959103016
0.19975842080860798
0.14519643811575939
0.0
0.0
0.0
0.1366123845777077
0.3396602644918
0.4358212978624163
0.43922497611823774
0.4556376352811671
0.48758971367929427
0.47982120653440397
0.48742405897647034
0.498449441250605
0.5032568253491003
0.5185663013127078
0.514721340511247
0.5171956705636613
0.5442945276062846
0.5502912930738958
0.5623691871651324
0.5579755269189919
0.569944579861067
0.5907915129710212
0.5984692218537495
0.6043548931462611
0.6250792197410504
0.6692623208310969
0.6800579362329428
0.6662088219526938
0.6902782561628955
0.7108284012448708
0.7439655955070673
0.7745006990152496
0.794339572662296
0.8088234806031742
0.8344461588000559
0.8578844444476204
0.8514832462968094
0.8750271790990528
0.9229661710824896
0.9215234399216229
0.8910130330782746
0.8778942974214388
0.8586427237673799
0.8362362173792329
0.7908579178725117
0.7517296310542164
0.6966780900097761
0.6439959631864008
0.6162264994118675
0.5887902831289579
0.5652157650328606
0.5573734448256553
0.5363227969628495
0.514643718045913
0.5250020141752553
0.5383462487836572
0.5470082340011019
0.5363834893016514
0.5423434954548421
0.548087959677048
0.5494494776338635
0.5332245887971709
0.5383027855174602
0.5469901339108222
0.5325884058886755
0.5124037831141794
0.5163227734606946
0.5195969771308416
0.5109740775115758
0.4916705891948611
0.4903816539381835
0.4998356644649945
0.4827490529755673
0.4617657606774328
0.4645589679477645
0.47613164347944537
0.47514125331476464
0.4557936360550353
0.4434514330224861
0.45757465503922284
0.4628319823780463
0.45008540355937665
0.4437585083743902
0.4541801326153768
0.46102709628651645
0.4564578955488404
0.45698906608184303
0.4827989870055645
0.5149768875731581
0.5144564058748884
0.5349847445864168
0.5799626884856963
0.5929297652862997
0.5609053428346327
0.517949778538519
0.4755836059181335
0.4457937172603536
0.41946029804356993
0.39711713259606024
0.39484602242241307
0.4016857361252348
0.3897752720894132
0.3777084689904558
0.3721383301268931
0.38849903626477306
0.38311936351818243
0.3442446020560667
0.1884748757369628
0.2934301296692386
1.0
1.0
1.0
0.36050258786198297
0.1763816246687568
0.07340896068288583
0.0
0.0
0.0
0.09517038140367137
0.25276381820005367
0.31895975801167487
0.3553836958070442
0.3655836507808855
0.37534848552905414
0.373988738464402
0.39088310061835746
0.40707493765293
0.4053592571286238
0.40536164653364637
0.4219677301929242
0.42660399414274625
0.4283297122474138
0.43266071034276266
0.45155877516009085
0.4700193546744602
0.4717988205376781
0.4780465234250837
0.5024441577474293
0.5182298365678354
0.5350408766046603
0.5352210378539224
0.5582671165515889
0.5969693791787247
0.6122264820470905
0.6280431680128528
0.6496936861890341
0.6861880671135101
0.7028163343088826
0.7173633443590608
0.718523762281202
0.7558320112888607
0.7663960024482679
0.7703251956631062
0.769305288878958
0.7777356914719606
0.7569145738416531
0.7225322221925031
0.680606978544308
0.6482283739450903
0.6105220060723637
0.554638195450391
0.5090478217904166
0.4807819452551462
0.4657570741486203
0.43928084241201637
0.4153874789027353
0.41592571780156984
0.4200801488456173
0.40816673044184554
0.401377184197246
0.40770896491923897
0.43187883507290364
0.43222306192300064
0.4240324719495542
0.43273549466063743
0.4514073570042264
0.45210144661827256
0.4431154827420907
0.42766476807613707
0.43531862190465126
0.4419157550301251
0.43232288287925263
0.4244541223833715
0.4290627401832542
0.4339503589563541
0.4224736917377291
0.3980972006722654
0.4094750101973153
0.4131504644298115
0.40202290006490876
0.38556711264696075
0.3957523558144616
0.397386614635107
0.39490876236760314
0.38672900886751177
0.3801920782890563
0.39659187542973917
0.3937868321979841
0.38629144083342437
0.38218261702190437
0.3894739174195899
0.39041133328627786
0.37842875790872277
0.372135429203903
0.3834612354842023
0.3846131093992177
0.3761433041691348
0.3746015905845884
0.3998094676826824
0.41263392421096634
0.4287657312161489
0.4246164386063852
0.45211673794386664
0.4912848593393904
0.5163671257148839
0.4959647965475139
0.4844093875345939
0.4778883775383577
0.4462436157160058
0.4014083597030826
0.37220454888887655
0.3741150193795979
0.3700869394736496
0.3548086011698424
0.35670352680513295
0.36032117494263083
0.3702857167072892
0.35700763016247083
0.3583545139680161
0.37137181221968474
0.3595489951076395
0.22531301681940002
0.2296071794758312
0.8125428357176323
1.0
1.0
0.504007578906272
0.1957709294975249
0.19858700520123945
0.0
0.0
0.0
0.033024039200999854
0.2143046223132469
0.3025776071116729
0.34020655283675866
0.3665411011702434
0.3811675069786961
0.36957164979425594
0.37832356109784354
0.4012693242983619
0.4121237296146735
0.40584127898617856
0.4076145835381787
0.4157201012548087
0.43187228318601856
0.4288968922718349
0.4427386404569284
0.45820790434848585
0.47471080990618314
0.48407490033652517
0.4942296811675996
0.5175087763513895
0.5436704257789586
0.555675754363766
0.5725524635014376
0.6051391003601505
0.6564572146390104
0.6738140114459104
0.6904478336565989
0.7244423902835642
0.7628012233328012
0.7778759359365063
0.7863461332162343
0.8049260253995882
0.826912407571718
0.8280820207537916
0.8333795356509827
0.8211310948169357
0.8112506396692101
0.7659939490179826
0.7192566243949848
0.6699973863086621
0.6355359710509285
0.6061865796959507
0.5565166221950133
0.5157494224986608
0.5015166968910165
0.4944457418430998
0.4730476144918646
0.4460512518180241
0.4468102825118274
0.46132013882590145
0.4556911500495245
0.43345612729309596
0.44072923806401015
0.4572469941666212
0.4411134688924192
0.4410475008171015
0.44805504782015737
0.4585155399654387
0.4607761665781191
0.4465062990809291
0.4338127717605005
0.4461560609537673
0.4397341511953832
0.4355180637763726
0.4255124454379917
0.43175056235340314
0.44154204752065124
0.4297842328527402
0.40545362470947816
0.4157210465280491
0.4241994994107725
0.4152377196368796
0.4002785270622078
0.40606476166484073
0.4259407082943486
0.4088052328830739
0.4011176626145601
0.406369536466402
0.4115431205689088
0.4100199283211041
0.40687722740879834
0.38107410230725425
0.40549227046273606
0.4150099114981914
0.41628946456073573
0.41827472053815173
0.4455006818117669
0.47855359051653235
0.4933692848772756
0.5109081230810689
0.5376647205670604
0.517645103198384
0.4823250165366194
0.4420121599601055
0.41353981018665975
0.40316962729747513
0.38984759296283933
0.3817362751129874
0.3809845318873428
0.3739531226819234
0.3842529836135749
0.38432154524207673
0.3981825355764329
0.38990285147844606
0.3607457610085226
0.23295300719479523
0.440567492035054
1.0
1.0
0.661702148199786
0.07563119018487736
0.15054285361834857
0.0061213287590570434
0.0
0.0
0.12304075218842617
0.2973065414502765
0.386554707634544
0.40351233329886094
0.3986538405990391
0.4232768575807334
0.4555808847926775
0.45143884417079416
0.44607442556623245
0.4530891963414597
0.4632784183322832
0.4789024543056376
0.48693870708182435
0.5008961372315889
0.5046658613989355
0.4988183321637476
0.5037915259445682
0.5457288243143269
0.5612182707077995
0.539563373803541
0.5459727141345778
0.5886171398173377
0.6079104044704092
0.6013404206539471
0.6329995446696532
0.6646703928662572
0.6653393283562867
0.6892690054308883
0.7113959316216101
0.7351857008860595
0.7686661001895039
0.7717603456869265
0.7747968070811743
0.801429664824699
0.8293406712633111
0.827218757295271
0.8154969401754448
0.8004768030229469
0.7988228462386087
0.770444382826617
0.7060201532247414
0.6560025524771638
0.6293269130410726
0.5875064587351706
0.5404568970398385
0.5062477534599226
0.5009975623752947
0.4810592207163853
0.4617979082082961
0.4555891769483081
0.46410285399008966
0.471998921851181
0.46063575765704234
0.44873126979111194
0.46477218356913524
0.485540988194386
0.4810589406326134
0.4663125460574424
0.4660690941647112
0.47010010201299074
0.4637054792537798
0.44491640514079495
0.43666625091522615
0.4470033580689129
0.4435473367607373
0.4273589286720621
0.41922350066669667
0.42442040187633634
0.4340702174528115
0.40934831976605174
0.4161805219420211
0.41824687525196513
0.42039745679910495
0.4136070179727526
0.40304251475933056
0.4130744422243417
0.4198602113672737
0.42594529863826336
0.4311591666563803
0.45885144807534994
0.46885876813553773
0.48589618523877753
0.5165703619326963
0.5354639657891386
0.5355790908866247
0.5112357224140036
0.4769877416663412
0.43777404614904414
0.4185519263726144
0.3969264438057919
0.37724777539384546
0.3737793153514817
0.3809854510665708
0.3805139227479079
0.3642787867426044
0.36421373268234125
0.37474457873808875
0.3840666949213912
0.37728221307733234
0.33897508672353005
0.22542936424254637
0.28736466675551664
0.8988855286640106
1.0
1.0
0.4893958008536079
0.2111621447690409
0.16726755788816278
0.0
0.0
0.0
0.0668706267773346
0.24165591737779377
0.34615174868057463
0.37277718376312274
0.3764920430885311
0.38625395221723224
0.4016629364558259
0.42117354660576806
0.41425470322371644
0.41000761656477475
0.4261789510873526
0.4421615942226261
0.44232655575844626
0.43247783170971366
0.4586263039658573
0.47327184933839683
0.4771652327972328
0.4919190676745884
0.5052888874846169
0.5332896302607126
0.546584119378868
0.5503331075314455
0.5772461107958426
0.613692712771385
0.6325636221643602
0.6607512839832497
0.6907638244508416
0.7256053332553887
0.7579865920130194
0.7730786490176852
0.786872582159179
0.8108165160322433
0.8267691615301184
0.835588103378125
0.8199677363017088
0.8174096237819027
0.7854236240428748
0.7393610953616234
0.6863865145434319
0.6430514535512619
0.6063185755303342
0.5611180456764392
0.5218595427122267
0.5038385587635065
0.49551061807451796
0.4746167284526342
0.45462454010901376
0.455656724882329
0.4665371510875113
0.45682787744310893
0.45183261783461265
0.45366417141639265
0.46927426442596276
0.4731016209666298
0.4591126511104441
0.4586815212985608
0.4735423624954242
0.4781632131289825
0.46350813651330025
0.4573610551839217
0.4638073314157663
0.46086152326313795
0.44965950778212854
0.4394446134907345
0.44517695059289936
0.4426201332439527
0.44221989855979416
0.4279978935369038
0.42477218830418284
0.43595246508726565
0.4294992858323224
0.4184020223162622
0.41703780856250117
0.43251783140567657
0.42251255955995076
0.41737802980990957
0.4135101177650785
0.41686343277039783
0.42101476746062555
0.41313212704680635
0.4112832075822963
0.4144947943115569
0.41684803601147297
0.4056266719988747
0.4045835132525089
0.4157823349172758
0.42425472470443426
0.42752396121913805
0.41307255826073874
0.42334925890286634
0.43894496832237245
0.46137796548297383
0.4598275139061979
0.4812407887925831
0.5131863247142341
0.5425946002423843
0.5425467578299992
0.5357938173243413
0.5194264194397644
0.49638449930627065
0.4566289080371754
0.4180267876155447
0.40799501536964106
0.4091474888902374
0.3936192845187851
0.39114140631519845
0.3985411950707761
0.398482008858196
0.38998329275843846
0.3944083207058354
0.39425920202609116
0.3731100406418105
0.2378382252775299
0.3357703650079089
1.0
1.0
1.0
0.36963457782752
0.23500460847283708
0.17420752039729342
0.0
0.0
0.0
0.15092538523357804
0.30173462355321956
0.3647224222724387
0.38546822678065806
0.4131917050261998
0.42606262214364443
0.4234013390900375
0.4203274154286376
0.4400417240461927
0.4539371658993881
0.447485487053212
0.45091004502458587
0.457298848817835
0.4749041309384124
0.47488561981612537
0.48766504673169403
0.5060736027129126
0.515232852175757
0.5204633678819668
0.5299694984773529
0.5525909460803341
0.5686560715032148
0.5810610504983542
0.5724401842745724
0.6136670154635189
0.6639765742849659
0.6726380767235873
0.6756335218716759
0.6922401896273895
0.7318205934222783
0.7687769704802868
0.7804578209284364
0.788130865487531
0.8136777614388861
0.8316193859093763
0.8404809518518809
0.8516784634958026
0.8545283122766673
0.8393670181132287
0.8172336185069018
0.7807895226820654
0.7599422297134216
0.7214453154991803
0.6696115291206576
0.6413757174398041
0.6160782774514331
0.5898756803905824
0.5596120916392973
0.5194163034443827
0.5050475866006414
0.5119350507470273
0.5017851953415041
0.48467832752581197
0.4679429968692285
0.47097054879348227
0.4787731196304784
0.4826661671838412
0.47872103256027365
0.4823245349304163
0.4975441733689692
0.48645505669749217
0.46787898043535964
0.47245252467187565
0.4748243002433072
0.4724190798592634
0.47294336868772513
0.4669819901771971
0.46436699812984444
0.45957150906146166
0.4498555815675475
0.4568603581676315
0.4606193666574788
0.4565151847754013
0.4411859949669739
0.44402941023439857
0.44688153425118626
0.44642617996082573
0.4451474951260481
0.426771542946853
0.4262548577445372
0.4300142361463492
0.43481234120359613
0.42172182803406455
0.4372790301606496
0.43328304369472104
0.4230225208678471
0.43137443379571555
0.4428939133755769
0.4422731853166394
0.4352465255904804
0.44925108668000757
0.4703731914095915
0.4975468592083809
0.5186942619410299
0.5352649601195093
0.559090136804802
0.559968330752376
0.5355714585737977
0.4991194638434006
0.45797566883533597
0.42932137486921784
0.4331618252811489
0.4288205284569974
0.4091615429502082
0.4240483813709913
0.43275202971090004
0.41830560121896687
0.4048148343695287
0.4232248152844016
0.4258355726257495
0.4144623938574482
0.3289422638791132
0.2850523258755696
0.7236178575347018
1.0
1.0
0.5246463851125841
0.1479519238178723
0.20479731083457228
0.05475657909515075
0.0
0.0
0.09032872671138366
0.2429944046806884
0.3578556708121837
0.4321420090328686
0.44484296209125274
0.45066341895347184
0.45770040663584954
0.4665117454375382
0.4853059886446838
0.4739075071473532
0.4572726518978191
0.4897397558846664
0.5140051785508317
0.5063736334704002
0.49987384440274996
0.5068186598152834
0.5215774866577092
0.5436183134136212
0.5581305603793113
0.557267333337087
0.5661327046677316
0.5803538468015381
0.5828392326888815
0.5995193313422893
0.6408140921604948
0.6463833779777818
0.6480405758005563
0.6747613583441228
0.7063011506045634
0.7223461027495853
0.7372796424474439
0.748727577132599
0.7621093095806678
0.7946771833359237
0.8122950879838642
0.8208078786957774
0.8353248622175691
0.8281712603979564
0.7946443279045704
0.7532501552172542
0.7204115716275679
0.6956075032654421
0.6501930540568963
0.5990547648452746
0.5655199642550912
0.552329744466585
0.5288584638311203
0.4993431211280913
0.4948423680298551
0.5100342081613293
0.49920937477299265
0.48832256989866496
0.49661544041689865
0.5115773404209204
0.5133450622566866
0.5092219981793893
0.500381550622795
0.5104933749616347
0.5116415335018389
0.49772767604832646
0.4845865068452436
0.48420005280840234
0.48649344983908593
0.47588887899434995
0.4632807413808502
0.455955339653287
0.46078957969516754
0.45894125800556224
0.44441125269751414
0.447559466624186
0.45430604327679447
0.44385542122765553
0.43481283787030334
0.43187086364340593
0.4327614806844847
0.43400254380658704
0.4239067140049698
0.42828668930331004
0.4490541928780852
0.4639658060661791
0.4704847756011071
0.48186909402558686
0.5041481898444251
0.534774432938795
0.5520407400371985
0.5349373799412012
0.5166691688980198
0.5072496323334128
0.4595484045057433
0.42528214660929686
0.41391714881003205
0.41531892383439245
0.40209688220944206
0.39437291956333526
0.39528734459498766
0.40599013158913266
0.40473187899874874
0.4017864082798942
0.40208589468566264
0.3928698703689979
0.2791611336475971
0.2780941081044481
0.8088875420217407
1.0
1.0
0.4924516630150631
0.22800058514667015
0.19968127992719586
0.0
0.0
0.0
0.0819216088692614
0.25546556874982274
0.34417917206397897
0.3712406671420213
0.3827914076155191
0.4083557916815218
0.4112133149921108
0.4121123424731363
0.429437947837272
0.43433762050407954
0.44206334531187325
0.43392374908117837
0.4356439353932086
0.4570500974786933
0.46465456430969193
0.4599483669929351
0.4760388459835272
0.48919247515622055
0.49729861955073335
0.5095323667756094
0.515278132459813
0.5342652913566895
0.553283245797295
0.5691940499767341
0.5824889783837496
0.6141086211518678
0.6406109369535831
0.6472278172413747
0.6692786363092258
0.7025601994082213
0.7309932686225649
0.7457439729251091
0.7474280724413995
0.7614954390361659
0.7919081587549932
0.7942786685053189
0.7937191452907284
0.7975136706907288
0.7874716966785538
0.7613168809454959
0.7213847697254316
0.682131148746185
0.6502967269702035
0.6064856160193687
0.5672262404686954
0.5292695751874993
0.5148157199605607
0.4973153420649886
0.47376325814597564
0.45219929269554304
0.4513259193125104
0.4623199228378712
0.45176227748282843
0.44037094907440444
0.4527599216832271
0.46054341269419224
0.4619054729048127
0.46020653497247743
0.460548888931239
0.4745943902894264
0.4750902600847504
0.4605611094752854
0.46353323129516555
0.46367457838276077
0.4622006956227553
0.44848131087588766
0.4428365639114274
0.45275681874014123
0.45203281197808753
0.4383656467009821
0.4287278505657879
0.4391375090441391
0.4415164154687571
0.4319716562661721
0.41694663691804
0.43101480749249177
0.43698492975728176
0.43167439917508243
0.4210902483724264
0.42719994789722104
0.43242657042894644
0.4276193432944793
0.4248893566179233
0.4227158225735
0.4342102673487503
0.43672985410773946
0.42171744737274003
0.4281527941719503
0.43805645815771277
0.4354357531309468
0.4328555206014035
0.43906584217270306
0.4640581404281507
0.4842488709326743
0.48507753521797276
0.49675075417242176
0.5388992928808354
0.5599739981630233
0.5460746107278773
0.5147383722322226
0.5114697477181002
0.4839081172144872
0.44110961123564174
0.4094346022724067
0.4168700493953626
0.426174602074613
0.4185697750711914
0.4049978879915167
0.40782126854051803
0.42198363579678755
0.425676626908449
0.4090813441975314
0.3937918974980053
0.28818845980240154
0.33134714387573905
0.913347064801586
1.0
1.0
0.3853640493417
0.2410340417924449
0.1703525747490629
0.0
0.0
0.007828107195594925
0.18167249034689736
0.3304731961667895
0.3962442886311982
0.40905293946264143
0.4253343125770607
0.4313827156898046
0.42848053380373197
0.4537957690338761
0.4612458897710357
0.4641662192123328
0.4756477874905741
0.47623251528522453
0.4809430020459537
0.49241772098536646
0.5090195960730767
0.5249411942071249
0.5133238092039802
0.5224727326441088
0.5549103703853959
0.5679065331008538
0.5690310651269257
0.5842288293450666
0.6124995691194466
0.6455931339449326
0.6508610354800946
0.6700690415169663
0.7071867867733396
0.7594910409414085
0.7730270277836044
0.7792511510632967
0.8082999963368642
0.8349431365532631
0.8445711281305254
0.85317871244341
0.8589989092823448
0.8801634852666073
0.8670057667894756
0.8364179707004127
0.8005286422637603
0.7736342516799961
0.7463133299672766
0.6984941995935973
0.6552926994781412
0.6291625281878178
0.5955437232993579
0.5680836073979134
0.5490397338658541
0.5360826381991985
0.5141308725987849
0.508927472687393
0.4925839322987865
0.4860581880318523
0.49629023332344363
0.49143632714570423
0.49058401793289586
0.4861809855644264
0.4944693402688272
0.4895758476994909
0.47546145075346075
0.48401041222434893
0.491726342749493
0.4953264769942208
0.4692796294509418
0.4737002167160294
0.4809608917259931
0.46610175531597803
0.47553281176596673
0.4760877735956755
0.46080035560373567
0.4665778315074756
0.46992289152420313
0.45729412203010256
0.4554310628160101
0.475796346285025
0.4513617330183952
0.4382187127434759
0.4487328138322444
0.46114145832251197
0.45298128596390175
0.4350769165081644
0.4574552304782924
0.4741759459176295
0.4553345437286035
0.45599882138681574
0.4615100994581554
0.4824305750468181
0.5163228324965996
0.5171433758930968
0.5231657175056643
0.572167855153231
0.5711246927785097
0.543648040712245
0.5118108887768524
0.47278854022544864
0.45449191341758766
0.4411160622727032
0.4180035911990469
0.42785491623939026
0.43022295736573596
0.4252157365598004
0.4054455971065395
0.4207720290633377
0.42510985571997406
0.4268169415975926
0.3380554747901888
0.31134593743617617
0.8202366540382819
1.0
1.0
0.32528752099479197
0.18288035919294904
0.20009345623030245
0.031229721771865827
0.0
0.0
0.10956969023226008
0.2586043908503489
0.3831055002359494
0.4287796717628932
0.44736068708202764
0.4412737446557172
0.44334952834195185
0.46498480859770464
0.476169990435634
0.4913692947507816
0.4717407797050014
0.46775104415845703
0.4938066134731981
0.5120025178558862
0.5027982995575548
0.4993589733659604
0.5211275318611901
0.5319662434651209
0.5245812359599948
0.5419832065562414
0.566595999622548
0.5781879465493924
0.5806125284246533
0.5985767818009238
0.6177677034070713
0.6343918302062936
0.6397873618803039
0.6539757591791082
0.6822577480700491
0.7078945758603069
0.7120794889537102
0.7229284438391668
0.7452384436263644
0.7695758082367232
0.7807234745751388
0.7914879407384465
0.7998615918738394
0.7970928213081372
0.7713348009776672
0.7245956499127312
0.6961345675774644
0.6687878216881453
0.6205967237838308
0.5780676474618288
0.5456346505407956
0.533811806876713
0.5204560571863424
0.49981978793621024
0.48608608534502185
0.49803977480201417
0.5051046333355173
0.4940442034093711
0.49673690176792873
0.5193204390648377
0.5188404435615608
0.5107135624643854
0.502712042093618
0.5177259962140834
0.515795676879222
0.5058873943119514
0.4879025395771689
0.49231805331704637
0.4922341062039072
0.4792484417446456
0.46252962507811074
0.46438436710774367
0.4699813403034191
0.4595554909473577
0.459742183518275
0.45264446712671846
0.4610318283157465
0.4580285241898762
0.43664501005444584
0.44257790135574815
0.451461878009383
0.4556821286589635
0.44275127691426464
0.4400252099133041
0.4509005486558036
0.4482053559977703
0.441495743050785
0.44135094541397757
0.46263614081809584
0.48684815092422096
0.48904729902726285
0.48857512333982206
0.5220285658687472
0.5602536183229873
0.558667044998491
0.5370619004792565
0.5287473079563566
0.5108125576706722
0.47318912916045075
0.43805209635150544
0.42215620710591306
0.4239784401155027
0.42398643683982506
0.4038977903482097
0.4080924067818317
0.41338300267803063
0.41945314650230625
0.4122070674377089
0.418221287934864
0.4204734671719261
0.40913265643905133
0.2854666531881253
0.31355432527729205
0.8860208285956628
1.0
1.0
0.41182555824853334
0.2574286357129143
0.18599563408169298
0.0
0.0
0.01674743955765523
0.2084491977109852
0.3512375579072618
0.39507271751292256
0.4164155553121188
0.4342338965493857
0.44610562909336426
0.4416164262120543
0.446280098029429
0.459598536881275
0.46577826333306255
0.46417329371477817
0.464861759999003
0.4785924402010579
0.49583791770444385
0.4986999143161504
0.5051341637864019
0.5233335772776747
0.5504144113345684
0.5502887644325518
0.554312985994102
0.5785319845372997
0.602907926232686
0.6176941316427227
0.6285885078787778
0.6585015300727942
0.6930406451496464
0.714546478061035
0.7337180855776813
0.7563834043504444
0.7862319395448392
0.8063671924504803
0.81055515562823
0.818220316836746
0.8410284517906458
0.8448952143803247
0.8278450501999546
0.8039469001483006
0.7828785025477181
0.7490013754403948
0.6953100893983791
0.6520164744524419
0.6214393152186009
0.5945611762221112
0.5537329006372115
0.5330327278938545
0.5204040663790053
0.5176692199683818
0.4990659382246088
0.48301044426899065
0.4812957041891613
0.49346095255238137
0.48954181590464907
0.4804831056367826
0.4881575506544569
0.4994638077984437
0.5004023770725449
0.4955534544270403
0.4921093924577099
0.4990639567531633
0.5032971927983169
0.49270430670241333
0.4903182426039107
0.4952171968959534
0.48602178238093935
0.4845003357154125
0.4707427060227257
0.46872361725848705
0.48997780838890764
0.47529612090599266
0.4673998676274459
0.47149983333410217
0.47484133067212203
0.4676501164304991
0.45732327386673155
0.45770204286360955
0.47124118167399986
0.46764965351255244
0.44773058950245687
0.455044019586467
0.46505538980583827
0.46025885850399695
0.4495591338363615
0.4553234098739276
0.4622918703070039
0.4699601516749814
0.4663170014165468
0.468881425032991
0.4979108156293375
0.5098564205670534
0.5177103321328478
0.5243926768944941
0.5734736250238868
0.5938902494843108
0.5737021516205594
0.5387296149723015
0.5299330031500269
0.5082796438739305
0.4698704290737174
0.44899570372382336
0.4544673161501964
0.45782999212645653
0.45877211333245943
0.44455921937171483
0.4393260831810024
0.4486082854603672
0.4575040523307333
0.4417897115551807
0.4205811741418165
0.3129970769477586
0.3631171062718684
0.8942015668730118
1.0
1.0
0.5655654462872076
0.2914415349820396
0.2583065181899472
0.05443370725692755
0.0
0.0
0.13310859430422614
0.3046514465530906
0.4070945990770656
0.43519228084875544
0.44407179896800997
0.46023183042182725
0.4772802612561578
0.4825633443709757
0.47384914306790094
0.48734972032299134
0.4999187258868739
0.5008479244062589
0.49350337371304764
0.49849685281878975
0.519325030018193
0.5347127636531211
0.5312454796523329
0.5292131662101385
0.5579636288722851
0.5687137695740621
0.5722164802142113
0.5778490882221742
0.6123535284812418
0.6333019998609852
0.6449780941488251
0.6559071203459627
0.6808198663713994
0.7127023355731227
0.7335729904575554
0.7445749843635823
0.772415203963529
0.8066749287472785
0.8240949075270481
0.823722246400999
0.8272271635777175
0.8572773725817671
0.866803934975545
0.8570931532484909
0.8457286881354145
0.8374934103611658
0.8149442293252716
0.7664474906902974
0.7210451314771428
0.6934899220671709
0.665075365396141
0.6206155159670231
0.5925600794114718
0.5755164320274372
0.5624941461921492
0.5387888458402815
0.5154186428925909
0.5114965994171397
0.5213691472821586
0.5215649329715661
0.5167309357552198
0.5106896430905584
0.5209924207656983
0.5146472016099384
0.4956554210839787
0.5040596338378223
0.5155643687263936
0.5102681998996962
0.4933995424745457
0.48048637561520496
0.4952259934722867
0.5007735434889599
0.4912265950287627
0.4874644525522209
0.5000855578569859
0.496546356619428
0.4706511304012125
0.47151058069155527
0.47438941486399494
0.4833251814659708
0.4780612997338312
0.4715949837305778
0.47296304649871024
0.48137027795407417
0.4712027846204781
0.4531675773671949
0.46037309401979176
0.47644883178745234
0.47388522238889647
0.4476006042333022
0.4514945126601363
0.47516651568954876
0.48942381385127937
0.49756860577326656
0.49405320575274
0.5275664006822909
0.5645285923731784
0.5887853304064602
0.5708577738444759
0.5484781042625692
0.5361718586759932
0.5160933813503046
0.4690527517861768
0.44780643505510803
0.44776627562096183
0.4311383511077052
0.4274013949538401
0.4393673808112756
0.44012652391200574
0.44076947770384783
0.43692230972652013
0.43531522206146844
0.44522145237487154
0.42062411256686777
0.29242237359462897
0.3931153666273085
1.0
1.0
1.0
0.36649250073328304
0.23293395151547597
0.2332363324789896
0.042071292719916185
0.0
0.0
0.11754700578431683
0.2608824220863691
0.3818487692033371
0.43136335944648313
0.4382095758386245
0.46012949557715005
0.46720655833682123
0.4770484109600705
0.4866264022916642
0.49484383371287954
0.4842500581412864
0.49591411747493985
0.5241619085492022
0.5194469357028322
0.5046471507210115
0.5162480155589921
0.5521264415019043
0.5717794888929717
0.5474359317963877
0.5495004822273432
0.5857031758440617
0.6133002173797024
0.623667534836392
0.6302832357047519
0.6417141560544914
0.6614521566381406
0.6903029046505569
0.6904054480163108
0.7294668319802259
0.7533644827689762
0.7587074124971485
0.7754139708055696
0.7843516528782551
0.8282253482282336
0.8534689990135353
0.8378198569301668
0.8251788692332704
0.8271145722909461
0.7957483207839824
0.7513607563211929
0.7070345703857104
0.6768209474167186
0.6335445245301689
0.5935145137673203
0.5600925846985856
0.5524788528782245
0.5353295575967996
0.5207502813237842
0.4989944287946398
0.5117002469434808
0.5156816964538395
0.5155819103645137
0.5089735253151911
0.5239329310059556
0.5238882360566696
0.5203389127056004
0.5084753028962299
0.4999421251418054
0.5102155576036236
0.5024702249280495
0.4845176480466137
0.48552665504554166
0.47764046328116094
0.47470453669145335
0.4620025360906402
0.45912312614834344
0.46231090392874324
0.4601356600536932
0.44742801958066847
0.4479212039900828
0.44957725653093555
0.4550719540564505
0.44438440795096684
0.4380403159035657
0.4458806403620071
0.45023365813792504
0.44395036216684536
0.4407075310607972
0.4602409784543566
0.48632338688561305
0.4865794320042974
0.49967328246771425
0.5306006576685334
0.5687251575619479
0.5593877960420727
0.525381477409637
0.50002584584471
0.4850475353527301
0.44103801941024656
0.4089843106487924
0.3996593036682703
0.41353436144378913
0.41074879160463607
0.39879969216868266
0.39578849090879853
0.40433039401751997
0.4008809184422585
0.4041358014956238
0.3901209706764882
0.3659103208887389
0.24236858181502635
0.3265421690741979
0.9799032776689256
1.0
1.0
0.35459013701985037
0.21928630355659084
0.1291605624288196
0.0
0.0
0.0
0.12665459906260276
0.2979504149525315
0.36343175856521076
0.3754725127040556
0.39123717170851463
0.41720120553700896
0.4290492852677231
0.42425966455843245
0.4302230513970141
0.4412992171984822
0.45335625845413585
0.45228941887402885
0.45078271005539267
0.4661884733029479
0.480804039457877
0.4842542774523297
0.4833987058513305
0.5026695737060574
0.5158016849685763
0.5186384608055643
0.5227563393003958
0.5425461038166877
0.566324077392767
0.5895586601885255
0.5940660515705326
0.6193738696853448
0.6501877045944011
0.6691376989454232
0.6887974735279412
0.7145606410894204
0.7433947970571795
0.7614712467044287
0.7697675386905771
0.7733589811268118
0.7995009492868526
0.8160016691701071
0.8191810848985999
0.8117103700448753
0.810378707397506
0.7958713093999462
0.7556290586185417
0.7042920588723277
0.6700017079881495
0.6374905629554313
0.5951744798666663
0.5475482318254092
0.5120868564657667
0.5094423306042547
0.4914938596169507
0.46745327753547994
0.45929514335956123
0.4629692536271454
0.4569029272788545
0.4530785512498407
0.45463768537692584
0.46252323828950603
0.46703040877909363
0.46208243665073845
0.46403921181134056
0.4816926484920727
0.48598132347894574
0.47269364881171744
0.46052250893453
0.47039566602076155
0.47208307016294493
0.4574571930955522
0.45021994298777007
0.44985325473929116
0.45592965325392276
0.441273328150542
0.4272025757205225
0.42886143011643324
0.4403753795802787
0.43220023260995816
0.420204777268545
0.4095368964926999
0.4217697981822327
0.42988942127264684
0.42555843066311017
0.4158046329900883
0.42696549232259845
0.4309826685422613
0.41799399675450416
0.4105743887313908
0.4266988743864446
0.4362589221497483
0.4256007415567981
0.4145958838820002
0.4316988177609882
0.44354489296020133
0.4569492897557524
0.46470041955316954
0.4849481484959413
0.5095471982007747
0.5413312255245639
0.560563939788301
0.5564930998885425
0.5348691111014803
0.5124556837655289
0.47565217007232957
0.4316744008558354
0.41994206250530314
0.42194358326348863
0.40748109755552786
0.4047410983284613
0.4112248650490201
0.41364271126350294
0.40314160753374956
0.39996938324091535
0.40868584408277975
0.35117427799845313
0.2293733968940313
0.529237881637108
1.0
1.0
0.7741992147974219
0.21951737965015644
0.2157247114400324
0.024787024717757334
0.0
0.0
0.08058381505034787
0.27472851510711294
0.3799278088797985
0.3947947328907081
0.40460228900484757
0.4323322353980987
0.4464758155839011
0.4412110113694956
0.44289101784331314
0.464601918552962
0.4735576369299265
0.47069293888729585
0.47233918810880116
0.49220705915525514
0.5072407293859877
0.5028855670213271
0.5078830011460176
0.527822162305749
0.548716426973136
0.5521768288692068
0.5577748876992554
0.5783465588436627
0.5960376446240823
0.6038921560718608
0.6307402436149194
0.6614892437214668
0.6916335399839364
0.7076545674734624
0.7230944155062529
0.756288684654689
0.7983359326998845
0.8126928633290186
0.8126490607875837
0.8231757985804983
0.8696753507078941
0.8800645212626229
0.8624859880424116
0.8494592132048433
0.8529116334955159
0.8214878274293023
0.770688009884163
0.7229845572000893
0.6851331443238238
0.6519028832993619
0.6292222004361514
0.5844636328345459
0.553815814378639
0.5401425259326951
0.5180932917844148
0.49129412559810337
0.4959931630412161
0.50805557094252
0.5004104251439923
0.48938421868829735
0.47738185486415585
0.4907485249319426
0.4921254769911325
0.48355814072125797
0.4819048988750283
0.5009042353863244
0.4967110198836154
0.4678822541531945
0.460372543106347
0.4742100732552763
0.4859915182613058
0.46793729064148265
0.44980014111254885
0.4485563435488378
0.46165824205009354
0.4614744144649235
0.4382578499540249
0.445013845772134
0.4585493949306657
0.4338082919478989
0.4212641710488687
0.43166567535069544
0.43296785620309797
0.43896927490347426
0.4262489001521784
0.42678153424284915
0.43787718859538477
0.4330467943455513
0.41893096430365473
0.40936480550643906
0.4275498234562819
0.4383629048948642
0.43001722672912523
0.43774445468809675
0.48867541051063246
0.5059284800863868
0.49082969076864436
0.5238854442181329
0.5816449679269178
0.5760754772046818
0.5342790108333554
0.4991090031253408
0.4726991592874201
0.4433550718566874
0.4174553005314342
0.4058266315952131
0.40660545842499357
0.3990548569263077
0.4117122938488431
0.40766838129883887
0.39158854450531033
0.41501398469055095
0.4200870122189076
0.3323500081069795
0.23499624378455386
0.6137679989213976
1.0
1.0
0.6692415217454493
0.13074946402594662
0.21634200480122984
0.05138878834376479
0.0
0.0
0.01915060653476717
0.16843178208418252
0.30763702628872397
0.3807181497646419
0.432668852320887
0.44482845223057427
0.4407504666362872
0.45035476815862713
0.4701569310226338
0.4919878989502366
0.48172046127553403
0.4647399773440631
0.4712515659688069
0.4888723958456498
0.5193086647236342
0.5051255509186631
0.5180022115336274
0.5344920497993529
0.5519796964037813
0.5520087185925122
0.5600113031946872
0.576096555922605
0.6083202771485294
0.6053457193540345
0.6292157951003979
0.6625566222705445
0.6716824436356456
0.6727606420808803
0.7006810909217087
0.7354846409951727
0.7733216673586784
0.7870394482647415
0.7853861323251496
0.8007723507153873
0.8446197929398636
0.8554556574023333
0.8630825497038679
0.8555812298743579
0.8267411311284713
0.8006326680501769
0.7643547739120244
0.7163773576371298
0.6835649859764752
0.6339218843754224
0.5855147918266053
0.5618425470999199
0.5487865339523708
0.531510980799843
0.513482102093655
0.5104109308004432
0.5222873918670807
0.5194465639045134
0.5196736138887841
0.526562375776742
0.5417254638092972
0.541905066458845
0.5286569453878879
0.5174314111421981
0.5326939483579035
0.521370471011281
0.5109744949747881
0.49775466430699833
0.5033863041939928
0.4984855546146528
0.4773118778701722
0.4651503037215045
0.47275289048789465
0.47023095855154595
0.4643036775611444
0.45417237311150505
0.4605306432084486
0.46251584163775794
0.4614105203374844
0.4550168537729948
0.4606135025529342
0.4607135943066824
0.46147385241130434
0.44072848110049667
0.4442232087446075
0.4577310775837832
0.4676799108010347
0.4712291740045746
0.488850693002821
0.5175384026789017
0.5322826570206038
0.5496681410280365
0.5729817264173691
0.5735923388543064
0.5589646400941349
0.5285169339169811
0.4949695786498329
0.4674683219867398
0.4406842287262972
0.4209668410292847
0.41388486075381403
0.4176710914387073
0.4281899666730782
0.40986359838658676
0.40910232343368885
0.4049772554622858
0.41786875070230056
0.4070149581190238
0.3870845600906475
0.2568348280556398
0.2899515370704552
0.9199595687095397
1.0
1.0
0.361030627911007
0.1937176158582829
0.058837076242128104
0.0
0.0
0.04133947007938978
0.2500249368145953
0.36606248936309127
0.40571773795724536
0.43044062320720433
0.42904122867935807
0.4290815563010663
0.4387913974520489
0.4525500453673068
0.4587718400864557
0.45835995942317054
0.4690372200270616
0.49006201917117487
0.4939846887047941
0.4933216380517072
0.5007759005834985
0.5320718949431821
0.5334680345872145
0.5433676450889716
0.5706436472422178
0.5957233571605588
0.6110012456249907
0.6223980804836629
0.6436053016024357
0.6756795427930378
0.7076118500564742
0.7213071742501007
0.7371607960876709
0.7722743512952301
0.7890296371235597
0.807717914659378
0.8124122422460085
0.8314683647787058
0.8554670840610854
0.8546942105062623
0.8323557888558835
0.8187218215880536
0.7979120194090381
0.7463492466860996
0.7024345308524064
0.6677977371686377
0.6347440626814234
0.5860235662594455
0.5388609186808421
0.5163741359652441
0.5124604563658377
0.49258123285620803
0.46436473428847347
0.4526290427082328
0.4750806018672987
0.4737245431742935
0.47143107183978994
0.47095974055456286
0.484995368895793
0.49955058395172686
0.49417801507559095
0.48168365716477035
0.4903053573297143
0.5013695393944001
0.48996696729127454
0.47161416701863457
0.476498109058517
0.4855582409968805
0.4814919225788225
0.46177487809417944
0.4599213941787025
0.46501998024388796
0.4609956555426419
0.4452628280969185
0.4453381710630655
0.45898560517580256
0.4490741872940898
0.44225391307312795
0.4433356413622159
0.44912060104178125
0.4504885596604414
0.44085205663463967
0.4311018001375517
0.4353989262615183
0.4472124950819765
0.4325392840059412
0.4202533056373647
0.42969338606331997
0.434792078335268
0.42616013004410513
0.4226063801315176
0.42866156849175574
0.44625352866328766
0.448636462295432
0.45804645918864423
0.47831298008785617
0.5075703385732703
0.5299676255275112
0.5566557621995074
0.5671170262331869
0.5693338354017574
0.5471788799646173
0.5059106151247684
0.46689571008176733
0.44963507608825026
0.4393017366181258
0.42202678876379485
0.4091482095194824
0.42143290728637905
0.4242232803441757
0.4226636671141871
0.4123100389911625
0.4217726748769097
0.42923051320327577
0.3889900092050797
0.2505328581135205
0.29332299345441737
0.9011048044849492
1.0
1.0
0.5657572500337921
0.24222757106817908
0.23673177142964047
0.0
0.0
0.0
0.04205934577708455
0.23244520389524342
0.3555112938082621
0.41476237910934055
0.42351956091527143
0.43880760384309603
0.44109870105346216
0.45954183401878834
0.4730527154262095
0.4754950159780303
0.4684933305575017
0.4827495081908548
0.4877054489616448
0.4937050848462524
0.49017191139510297
0.5091439402187519
0.5301837607033566
0.5323225688172821
0.5387318271935024
0.5596716399614238
0.5860042853002676
0.5827995973076439
0.5972636400732808
0.6240462098979134
0.6551384208285038
0.6741067416243306
0.6837519814062682
0.6995465578477515
0.7494058035815797
0.7818727833612215
0.7999451277374674
0.8209640250175436
0.8534810507207433
0.8691521221308329
0.8664063228745285
0.8880700617584256
0.9123576827887623
0.9263520705051997
0.9167717654908738
0.8886274340906007
0.8710268283398255
0.8519464087650501
0.7970603995419919
0.7340670339617617
0.6966212570140234
0.6700536376158805
0.6274673944792731
0.5857345835644111
0.5662192330744804
0.561008537850249
0.5535914251091829
0.534794008464171
0.5205319662013764
0.5218689589700336
0.529492080807709
0.5230684770863342
0.5093979136674294
0.5222976914236386
0.5388729823351663
0.528897900030031
0.511179846574178
0.5229534792950516
0.5285985721506905
0.5157436167054938
0.5109378912949272
0.5031949122950511
0.5053325747249031
0.5091690887981564
0.4993743577780094
0.4862433971159576
0.5040144726121367
0.48858277930270083
0.47781562320658183
0.4783837985277647
0.48186235864241767
0.4782127373763423
0.45597305225673346
0.45847864205717037
0.46579482657819965
0.4628251391594914
0.46076213739036886
0.4497882889950759
0.4542357964300914
0.4646595061229159
0.45629283237957574
0.44442675382965496
0.4734238193495785
0.4630419424519057
0.45122567846060857
0.4459677103265885
0.44787076962575956
0.46395724100447683
0.4695755620538963
0.4579620275433651
0.4603732993323765
0.4864756608374242
0.5224706542856065
0.5338649844427942
0.5338854948052266
0.5616152618763699
0.6129240602419099
0.6184298035592791
0.5791577518378632
0.5538794578751147
0.5250548496930015
0.4809474308208125
0.45057815213798336
0.4451018970765494
0.4486295126488251
0.4251783266673975
0.4465873302595774
0.44396785198272015
0.45258746061812516
0.4426777147976518
0.4517219253598837
0.4455219020524387
0.41134579239013214
0.25931623897899153
0.40713067241777334
1.0
1.0
1.0
0.2889798745253626
0.18521320010441378
0.1622648187035245
0.0
0.0
0.0
0.1379607910634507
0.3220125577371415
0.4143541416046343
0.4464635628788308
0.47097869043060214
0.49734328919378934
0.4872185276822932
0.49393006966152575
0.5154228230976903
0.528703336467262
0.5270249398340355
0.5301981880853859
0.5374985377168804
0.5453312175657719
0.5661881605006286
0.5780890635381855
0.5734191569967223
0.6014292421606388
0.625489962229609
0.6344906296270355
0.6342224057477609
0.6623397008654061
0.6954806254942076
0.718470862278689
0.7144299753622289
0.7527646486048662
0.797136063735463
0.7870927183638734
0.8163926449080112
0.8517978915103974
0.8705130940637618
0.8854055593902339
0.8957508671676084
0.9160094807950336
0.942235193058008
0.9522416533040399
0.9269142828621879
0.9064044834630758
0.8878060572313657
0.8382741425935404
0.7652103776712156
0.6982922557905216
0.684192689308438
0.6497753625770978
0.5918510868626504
0.5672672402925809
0.5672550515651954
0.5450957595268895
0.5125191088626908
0.5190897378202333
0.5631475638109819
0.5749445514530404
0.5389738226879844
0.5205318048597503
0.5562600513279132
0.5687754728141061
0.5481580741695933
0.5334753439041576
0.5332724495708154
0.546310130442128
0.528676716669527
0.5080236152666895
0.5052112248052507
0.5129894675738514
0.5049407742511389
0.4932628559503557
0.4815904782474938
0.49156161462898823
0.488050389502808
0.4716056531336421
0.4653398699398948
0.4773277236786215
0.476679066772103
0.46653312884123677
0.455020677650494
0.46399275911341703
0.47430117715911707
0.45932435678660255
0.45514812078566197
0.46542413011220257
0.46730594670576486
0.46697223397519794
0.46195905519100766
0.4879948872313479
0.5294852359197649
0.5278830613708442
0.5282448334722415
0.5704323241563456
0.6133155948317583
0.5870729197683959
0.5530008164825223
0.5275075141866831
0.5065411063666969
0.461574708380622
0.4241554891740398
0.41433390222888605
0.43111334510241495
0.42474281288591076
0.4074945327651087
0.39939186972372687
0.4228881832749501
0.4242025832374692
0.4165655752030938
0.4012981996733836
0.37740520500253133
0.2289936334363384
0.38155018972620675
1.0
1.0
1.0
0.37010749454781394
0.22537349977782634
0.12036999668301078
0.0
0.0
0.0
0.06897105942786137
0.26952254154310096
0.362489177393874
0.3953623916723311
0.4000355787876724
0.4363302726772257
0.4477376654323427
0.45724823629702877
0.4456457838560638
0.4688533598718559
0.4765421172518692
0.480551374453061
0.48145763308547246
0.5047265216735879
0.5109634618351567
0.5186704539595569
0.5182307993551036
0.5306979150748712
0.554154213387374
0.5728109448807555
0.5768323247743814
0.601383154372549
0.6317504604995292
0.6494482632985901
0.6584210667029716
0.6812000415571641
0.7172623752103936
0.7423018124209394
0.7537371778680368
0.7747457033710747
0.8091644817180397
0.82818772279565
0.8320112068350938
0.8397140423407177
0.862650591828975
0.8896574023273365
0.8907838698027899
0.8790804028798662
0.8701235738810894
0.836746932590553
0.7957520005994309
0.7406094036978701
0.6936266869232599
0.6648131002657809
0.6182413684426025
0.5735925212456354
0.5426409364473889
0.5366517811022475
0.5168798786839875
0.504325312293981
0.5092253259791905
0.5171198616246941
0.5219767292943758
0.5170500980972224
0.5167209714624602
0.5350671448925369
0.5425733086522804
0.5357367374594059
0.5348982941734787
0.5440745221025332
0.5546090014152267
0.547229895868021
0.5262918250367798
0.5264591952387455
0.5353179762515393
0.5154341102095121
0.49888369215324324
0.4965555268615788
0.49993879717186396
0.4922407829404099
0.4818254665542905
0.49467807450864126
0.49438979294125546
0.4927075465429412
0.47531519432280744
0.4691680331350666
0.4779888712854067
0.478735516127597
0.46243287317709114
0.4588787222701349
0.47516174960517243
0.4779528294783453
0.45850156723504865
0.46138399075211645
0.4681613355563676
0.4771079911981455
0.4680321960440915
0.45078051065520486
0.4576328296480997
0.48049949514380363
0.4726847528955477
0.4943266207764164
0.5096223210852184
0.5460637242662782
0.563748460161611
0.5911693711340662
0.6193246735116602
0.6211159647342013
0.5833555714533615
0.5515131808769371
0.5092883097386618
0.48498294938770775
0.4629805997892554
0.4531102966964509
0.4343674485031097
0.4531949238146849
0.4649851399686167
0.4463138469747176
0.4376056438253163
0.45903379032031316
0.45432545731345514
0.3989254047044447
0.2285182063682917
0.4060760572215865
1.0
1.0
1.0
0.4822624186550786
0.2650198242280741
0.19914061415268924
0.0
0.0
0.0
0.10650585886960742
0.284672511892493
0.39487163904766753
0.44648043866630366
0.45379329474258057
0.4564975867939687
0.4716210858944919
0.4833908174821083
0.5022693939508621
0.5034091089695192
0.5085271827056363
0.5203897895390528
0.5356924232047491
0.5343007223388787
0.5293118058324484
0.5531140493051253
0.5729255155294848
0.5760218864717632
0.5784524896041319
0.599358030697455
0.6206817195114832
0.6340730257775424
0.6408717713748311
0.6690746748018327
0.7047867729399925
0.7311508872793053
0.7430818348482543
0.766396189142166
0.8141997183488365
0.8590319489144894
0.8826205888023544
0.897630530458288
0.9286056377468366
0.9575137912948026
0.9669917491980758
0.9721622999177978
0.9913013957135949
1.0
0.9807786785208034
0.940144427847749
0.8844258976709529
0.8515900064923297
0.8151421258244055
0.7476154329094699
0.691823482732668
0.665794298511774
0.6349258803205611
0.5954626509507117
0.5783828878087424
0.5799808396978815
0.5558011434916823
0.5492891251949101
0.5501689038763635
0.55150939413805
0.5489270351728858
0.5499774711717013
0.5464218283538118
0.5639123184217104
0.5720469305739864
0.550918822776838
0.5272187148548928
0.5408743274260919
0.5503669905065371
0.5291999128265282
0.5165790640988133
0.5353564968148633
0.5324271663629495
0.5087244057311955
0.49518368905432314
0.5102357319628885
0.5196916878455008
0.50513445688243
0.48394164148597774
0.4871932747098359
0.47989287979489853
0.4767053966154613
0.47764557612289005
0.4781141324837728
0.48328113444806425
0.4914485509896365
0.47616531838170495
0.46943217873580956
0.47406302136555845
0.47441465389326376
0.4797654299158218
0.49679710313472353
0.5179493481529766
0.5388668153061061
0.5383615882992829
0.5311983762105467
0.6049850517510501
0.6483279446216715
0.6220851269675182
0.6021227891439589
0.575935791187479
0.5393576389417605
0.4907441842685367
0.4653481107312202
0.451036852231549
0.44511065557385565
0.4480421851164963
0.4471959714216226
0.4375149043207882
0.461849950992372
0.4629958961430076
0.4466890429630486
0.4236081069677187
0.3656527223487243
0.25014892077335343
0.627965492852536
1.0
1.0
0.9562385675248806
0.1518547999868241
0.1836839747092381
0.04311816625742626
0.0
0.0
0.0
0.19433080494103586
0.373481137155171
0.4431236340649255
0.47577109765531456
0.4987206692101386
0.49834723363888067
0.5143404005386522
0.507076555162621
0.5316700190642543
0.5630182894758335
0.5306600237577122
0.5354047729113182
0.5493801708440131
0.5728730680379959
0.6063307357587105
0.5845643258678931
0.5844595558317399
0.6338585588247811
0.6505834330732478
0.6569265217831164
0.6616569298974351
0.6958855776597628
0.7147808354845241
0.7085256028026305
0.7541790952543426
0.8024798301657003
0.8169823139277057
0.83397273551853
0.843740100862829
0.8781184351829504
0.9113523824972027
0.9167956886693247
0.9194074284278198
0.9391907698370735
0.9576060763985351
0.9679687924231736
0.947341028565949
0.893925891983282
0.8623627613586979
0.830074184651853
0.774566443166492
0.7208464777973743
0.6835646583321477
0.6534994722647849
0.6130345057536541
0.5863321479159749
0.5634617875374045
0.5600622773680806
0.5469258886658472
0.5322995825955414
0.5339548909934375
0.5504020662250118
0.5543077039819624
0.5517507812057125
0.555760699818421
0.5777259758987426
0.5706805677612621
0.5587072397568754
0.5524353466255318
0.5668508518934623
0.5539940465533132
0.5374044526641473
0.5395306734161714
0.5396657443959321
0.5274957709844471
0.5090120525887472
0.4988262159705779
0.5023335669778074
0.5021385093767424
0.4958724493825857
0.4774736457547319
0.488621370324761
0.5006827805370688
0.4784359019044026
0.47860729430107674
0.48291267576781377
0.49248760250083273
0.48431025339289446
0.479535958693652
0.4718196814244293
0.49727921454764373
0.5250162203906286
0.5291495921939926
0.535376618323981
0.571581846161573
0.6096307230566084
0.6136787114740576
0.5968508204264487
0.5702520442488955
0.5555276717663682
0.4991539556081307
0.45474037529508154
0.4460476973452384
0.4533443304550828
0.4398549715160566
0.41954623814236225
0.4226156587888828
0.4341624694498119
0.42157509751951155
0.40630268435911593
0.36736060291421696
0.2326218348175868
0.5400979138148876
1.0
1.0
0.7205096906544544
0.1726561567941976
0.13060394522044408
0.0
0.0
0.0
0.14235238186161184
0.3160223338381137
0.3944221792525578
0.4259924371666554
0.43383063065603944
0.43365248439282145
0.45811932967633917
0.4724434489579579
0.47801653685078344
0.46801930368203
0.47858974321661474
0.4922765725673403
0.506009785572068
0.49518596836124573
0.5167530523726821
0.5387699215565359
0.5412401748467995
0.5434109630715908
0.5614187458455928
0.5864764967854137
0.6084163943517361
0.6135782727879657
0.6243977585515019
0.6525655953955466
0.6818536009453875
0.6977458795040379
0.7189213490512609
0.7633601351788034
0.7999988216543628
0.8121219659552817
0.8270563404335818
0.8550736846948492
0.8901644880431862
0.8938712226929265
0.8999079265048131
0.9124686612059172
0.9373381576533817
0.9239102054897558
0.8887916688892753
0.8534205931527697
0.8259875522962424
0.7832447695077847
0.719787572333192
0.6713755430265098
0.6388866585506524
0.6039245627814802
0.5596382857227963
0.5310414474595817
0.5274768847747511
0.5092669366117912
0.498057771099426
0.4895000559609117
0.49705177351801677
0.514467107624512
0.5105033046172367
0.4886668414009227
0.5167354453708238
0.5260985472821731
0.5291341890605901
0.5273827912383514
0.5256656249579896
0.5365295109302185
0.5321129981510107
0.5130125863975051
0.5127983928705984
0.5200640608355768
0.5098231576065371
0.4913484298687247
0.48656008249969823
0.48677389483906525
0.4881265302517838
0.4705050296017862
0.4658521852989178
0.47303941624400137
0.4787310383546478
0.4680720122979345
0.46628235796677064
0.47192581643304915
0.48282610115369673
0.46281262725381944
0.459213426084223
0.457795645906322
0.4610728623715274
0.4580075248462501
0.460582219650658
0.4709164417447159
0.5035145836848935
0.5104210675380816
0.5198629583353905
0.5272029238675311
0.5639330014976625
0.6099483798714509
0.6260753041260227
0.6113766182070948
0.5930340749319417
0.562701779109004
0.5184831860068171
0.46417294982404467
0.4526574260648327
0.4522573720056415
0.4415376111253903
0.416351655893343
0.43018691501967526
0.43619364247140613
0.428214110258973
0.411397943585882
0.4427707529118751
0.43599767731263883
0.3885156281972771
0.219695746702401
0.3717643113757182
1.0
1.0
1.0
0.5310015361839121
0.2611452433172275
0.2337713054599254
0.0
0.0
0.0
0.015103006913988092
0.2254093874575271
0.3484481564816252
0.4126293412638571
0.450442356738986
0.4601970734714106
0.46224735016164564
0.47632783160644776
0.49166891983947847
0.4933418853852033
0.48602481082420745
0.500613913960831
0.5265466129186407
0.5258820241418035
0.5140918468693689
0.5412661597344316
0.5595415759822806
