MLII
0.5
0.36510184810468094
0.5
0.36510184810468094
0.6814882229715066
0.6236595158233037
0.47086176641118155
0.3975435720855135
0.4553861194345326
0.6155793753850003
0.4717080849640148
0.5632970420396635
0.688502382726844
0.7069498729743671
0.569311215651451
0.4956032826734992
0.5737509679000083
0.6207092118565829
0.5284551942936793
0.6156115489877692
0.6000946819674935
0.6013565995767929
0.509687143642054
0.42226204643138604
0.5513332737524534
0.6725102682421247
0.794217961158086
0.8563555459390159
1.0
1.0
1.0
1.0
1.0
1.0
1.0
0.5615579367485
0.35414175006767323
0.40477133243273544
0.3465125148666117
0.2019433038801221
0.15300344756103862
0.19805023349109563
0.22650452619459985
0.09881142773213458
0.7454351989942213
1.0
1.0
1.0
1.0
1.0
0.0
0.27307277240915984
0.2875000796106703
0.1652686747753899
0.20027030660178427
0.23414129342815496
0.18215002576465836
0.17921950728728678
0.30371039286556717
0.32908754563494513
0.33048280906941124
0.345054556714078
0.41911087220613463
0.4224855770965902
0.41368453828398755
0.40619805717443513
0.44050379351009655
0.48575035397662847
0.4914452530677987
0.48592057541981504
0.5109512730355867
0.565131944956503
0.565417406562356
0.5537011932613557
0.5502045068282811
0.5685247301340371
0.5704346268153789
0.5516661421661754
0.6190031365709189
0.6744522681043214
0.6845351008630635
0.6702599760668381
0.6385288055670628
0.641013229211913
0.6334009706483621
0.6049238675557544
0.6070810605604854
0.6100023862963091
0.6083701402300836
0.6044323743801246
0.5990653286535959
0.6029620550668195
0.6109979374251372
0.5893884406440926
0.6022577314834049
0.6132400823308279
0.615077933216695
0.6027008566608346
0.5930145534450679
0.6123849138346275
0.6156044114985683
0.5863730312929283
0.5798974374813107
0.5908825671146885
0.5987742363700674
0.6014479103080776
0.5938862498505614
0.6259102574873717
0.649711287866439
0.67864553492831
0.6966550042327196
0.6984578636605412
0.7020176001993738
0.6971268578948125
0.6392381407919467
0.5792518311201744
0.5589253696474632
0.5422316148038806
0.5241345006887673
0.5105467188034021
0.5051586736063852
0.5099664296659484
0.5
0.46755928221859583
0.5451845125884354
0.8657424007008825
1.0
1.0
1.0
0.9755249402595256
0.47573239679058243
0.44559330746613846
0.5027213142086092
0.44370248783508404
0.41724969450375066
0.41580111391096375
0.4145879026910306
0.42314490982361663
0.42747884614155013
0.4084953650397932
0.41678024422433085
0.43160361495474203
0.43926493689897805
0.42858131635837327
0.4375153151869339
0.45764852416850654
0.4728034303400867
0.4540884006895175
0.456987565183527
0.48194192805285574
0.5064400656110961
0.49867225164954576
0.4913225515896107
0.5140125866320978
0.5399402322589628
0.5164475897669122
0.5053995616701636
0.5113160172334393
0.5347526107638386
0.5294236333511774
0.5302224048259447
0.5475650282377998
0.5860168671932229
0.5807394615350779
0.5477057824332163
0.5430215204028764
0.5476668087157284
0.5634607907891268
0.5458687891077012
0.5274418931579593
0.5158133912784151
0.5494978539496194
0.5544085780208734
0.5199434465931828
0.5285827389626758
0.5476503070932396
0.5466694051324861
0.5374531965982217
0.5480600253137523
0.5490093196622737
0.5505052199338695
0.5576915601750532
0.5593757519271356
0.5544466415977765
0.5517881137062551
0.535854352908271
0.5499477512239801
0.5554085221683273
0.5775724926016279
0.5769519786561662
0.6140793212296186
0.6648907199735676
0.707969124227205
0.7150005882873763
0.6618050904256502
0.7029493126566165
0.6936203566183874
0.6151729001320865
0.5315819990276913
0.5074501847193013
0.47902993360267276
0.4577756125837049
0.42555707439890283
0.41938922796146405
0.43653605936500534
0.43445979938209633
0.40090398701215274
0.44214614948486436
0.7815342345275861
1.0
1.0
1.0
1.0
0.47685221062121014
0.35731981215440695
0.42378163273592284
0.38342512755741237
0.335007489103974
0.3382638667926966
0.3310493430327163
0.33996701803989093
0.3383590687130035
0.3282123671656895
0.3378718078963545
0.35901844501040714
0.36659087255982464
0.3613621672700876
0.35413433899552815
0.37932820793180494
0.39894220457103907
0.38922783315996184
0.3919413636453657
0.4136870149793482
0.43096259272157605
0.43418824605165696
0.4324927840088707
0.4428581532708127
0.490708400317196
0.4932126333662521
0.47154268377368486
0.4630760756076172
0.49847967852296254
0.5089348193494565
0.5063920562517853
0.5078697500491933
0.5386561371848951
0.549450216840906
0.52225948019561
0.49388275677887095
0.5007821531314417
0.5059965796056386
0.49171125589263626
0.4638722019540106
0.4619962540800338
0.49789230868521894
0.5037084115433904
0.4705960750117315
0.4768790312233486
0.5005360217618262
0.5076863874138535
0.4820310066672991
0.48145861624760944
0.5118530950486548
0.5234254283725961
0.49220875772248157
0.48271120740717627
0.470979181707378
0.49445009849431293
0.49184771077668205
0.4946003552196657
0.5211435360147727
0.5732283923022401
0.5748536745582549
0.5981875524708707
0.6455849871022126
0.6681878992278675
0.6469723842807932
0.6515063874020111
0.6021625578077108
0.5353600821148818
0.4908604461739238
0.4387796953798132
0.4183383529787695
0.41503675907400295
0.41416083020828937
0.3890443972449944
0.40182520278350403
0.4105032600018796
0.38157513860252995
0.5103695471639249
0.9335207796729591
1.0
1.0
1.0
0.931743492353051
0.4047261849835408
0.39447197138535206
0.44609125267186733
0.3555353772617492
0.32311675461534517
0.3357959564846225
0.3422265750501854
0.32533817318271935
0.3219540745243045
0.33929720788673573
0.3426328103185271
0.34519397621097747
0.3342426166857901
0.34764049584664425
0.3565495401367647
0.3632865162945659
0.36531940071782343
0.38511393779146974
0.3895976626454299
0.4004122243789336
0.40618457354230186
0.43033302686601954
0.4442466019350232
0.4327955319321733
0.445497435668075
0.46228946977642627
0.4824439034907491
0.4645160968669166
0.457397380419553
0.47342046077028666
0.4977530836208741
0.5061676800777162
0.49063659185792
0.5094706600592158
0.5422985557251887
0.5373878525388025
0.5154280161873717
0.49676409893872453
0.5158331704187822
0.5204872501889459
0.4951674541681087
0.48911011434201945
0.4987783119666038
0.5207580327809794
0.5109501451389481
0.4879130302364333
0.4927525104545258
0.514666751834292
0.5082120599505118
0.5060754132537911
0.49461296840532915
0.5162621115654005
0.5089517439898377
0.49417794238258594
0.5013867042390419
0.5009301883780496
0.47986991330542317
0.4711735790512364
0.5009790304622281
0.5372206927644465
0.5496927521373182
0.5680755128396893
0.6293849159029616
0.7018558960401444
0.6685392438933941
0.6361103951534035
0.6274671133475557
0.5945161402863479
0.5142961213079412
0.46011354240343155
0.4191359404282428
0.4325509240523405
0.4265005437101482
0.40260137993920564
0.38581175295477793
0.3964389792842275
0.37788537859851823
0.3727986873853428
0.5871127994455206
1.0
1.0
1.0
1.0
0.7099584404298435
0.36695090504203176
0.4186556706788279
0.4315757328028865
0.3524516274974554
0.33143281005251757
0.3360169131226173
0.32857596061989397
0.3364652094226567
0.34671750671270196
0.3412265924671246
0.32623848468585265
0.3457324278187828
0.37218535516890583
0.37654845825976346
0.35907090759338817
0.35706741903509537
0.3764311410253698
0.3973575025418974
0.40003227892160825
0.38189410768815524
0.39953068104579204
0.42931020380434426
0.44209848810269525
0.42975404243733656
0.43880847605136514
0.4657972310230522
0.4631509646579241
0.46777858393526917
0.46613558814995654
0.4834967171669091
0.46848145894845067
0.47971017189121745
0.52739790411618
0.5482720281457116
0.5441490300084096
0.5120609515806358
0.5283952912871996
0.5427471387568005
0.5283486277549645
0.5060987124343692
0.5018532267909153
0.517897520397997
0.5327149088802348
0.4950202238545421
0.4841833783763618
0.5043620186092038
0.534032292663727
0.5212697865710838
0.5041684435036646
0.509361933943325
0.5300760912317793
0.5284468853447521
0.5133682813301281
0.5000298787082988
0.5187998599049892
0.525802413122977
0.5085430865374211
0.504477956848463
0.5095879713794338
0.5161724348714671
0.5142683633890636
0.5390337368524294
0.5679550273785814
0.6110247558612162
0.6391083897946193
0.6980932761714232
0.6964362396224872
0.6752610722219604
0.629340145714939
0.5654851249874742
0.5291753266790112
0.4882844117535493
0.42721869628831166
0.40444070283653166
0.42837105462746755
0.42261340008136106
0.40969294839450676
0.3680957644366817
0.36563598975731093
0.5526078659686965
1.0
1.0
1.0
1.0
0.47446664827850354
0.3089639060949193
0.4075678794835052
0.3999449064858078
0.35022496977912637
0.3147092565554167
0.2959639797208401
0.3311196240101899
0.3433955767755687
0.3299267570131588
0.31116541039038215
0.3277662526700885
0.3578824286928265
0.33665206428605743
0.3272350496229793
0.34269936749933655
0.3689904773058227
0.38268387582482755
0.36410354592621086
0.36616300762906423
0.4047557338893446
0.41731074150300607
0.41582068478296963
0.414795315234325
0.4249982173183967
0.4429046436233707
0.4407246189768661
0.41752026790204644
0.44144067542995896
0.4551357769935119
0.46944228337699173
0.49518320439851155
0.5116908071408941
0.5051573051332097
0.4930337438730882
0.4869703105229838
0.48572565037655674
0.4926460859248148
0.45434641964716266
0.4445313038536852
0.45802220819397477
0.49014780609113595
0.4779316702643147
0.4512908616279672
0.4550072451176324
0.4866584950625428
0.48107498782376024
0.4502408601514576
0.4516953214602042
0.48343851603949883
0.49162286396724725
0.4676657961414904
0.46518158011511507
0.46889618922273524
0.4779509027333195
0.4609839432552887
0.45581086619053346
0.4647318477826972
0.5054313575337221
0.5305460405406025
0.5580670267567667
0.5938077703356377
0.6518679230546169
0.6540296820620227
0.6091330588916617
0.5970460880833207
0.5640184795666279
0.49163792388665073
0.44537217243827526
0.4140770120228511
0.4038830675384399
0.38544387367233207
0.376069442908733
0.3683174117066469
0.36539237747381836
0.33031861176922306
0.35030467345635435
0.6542527782586222
1.0
1.0
1.0
1.0
0.4329355116969184
0.3003444505673138
0.3859778984261191
0.3455790494090258
0.32795526321369406
0.3198561096569738
0.30781512543442685
0.28396279525916346
0.3201577388316301
0.34267204946413754
0.32039128767716685
0.29579008453717204
0.3071785882258659
0.33568332985737037
0.3517669405839031
0.32452833805833714
0.34088862301349787
0.37980644975403566
0.40000299734710315
0.3820986609881755
0.39790852787765224
0.4292944436913042
0.44135678951296925
0.41928302482319546
0.4312185130800089
0.44126384443001376
0.4437734753405091
0.4279576831765849
0.4477283070270814
0.4720349594034018
0.5195300214530163
0.5230454906446855
0.5063286509046422
0.5034371230291496
0.5276996520941454
0.49459663919842667
0.4758382070443618
0.47092516391264977
0.4907714654377475
0.5029296957099174
0.4957068835168806
0.4941277525629039
0.509446317779727
0.5082336601011794
0.5010619221698325
0.5061059565729474
0.5190458319171467
0.521479301942066
0.5045891842005029
0.5113434485546619
0.5224908352374206
0.5241497439597956
0.515402165260823
0.504133409524828
0.4958835188059593
0.5034187010403212
0.5028622935422236
0.5268294276015146
0.5654481361547374
0.5902482375808755
0.6090976155982692
0.6564472645873539
0.6864721110549041
0.6760690148136588
0.6529872442102846
0.5890389181157737
0.5369930544403869
0.5092422602238591
0.4611408695879267
0.425891721420697
0.42645247666787833
0.4510799138772403
0.4263269834510163
0.39757588103201735
0.37452185565462337
0.5412550980572697
0.9745171923731547
1.0
1.0
1.0
0.940356007720208
0.3738616006906608
0.3511060208678928
0.43696088881671924
0.3887204732327555
0.35127585550986173
0.3220987085966806
0.32098775923517975
0.3400710089146518
0.34759158710574684
0.3356410463012506
0.3322268305351249
0.3408028373525339
0.3479366231284934
0.3444609867969524
0.3407873708742827
0.35556300214074316
0.3605377564507831
0.3569859371998278
0.3548059481459803
0.3914087231793899
0.4081429945949354
0.3959600232060934
0.39586477176935364
0.4214736458666956
0.4387403478900821
0.42638651934192423
0.4254375324671365
0.4360751789140447
0.45428330570425324
0.43199662679728934
0.42728792204465327
0.46346648948410196
0.5034565225437004
0.4950933196838395
0.4760471110672643
0.45490411151484683
0.4768941889293292
0.48212060437517656
0.44512160772440457
0.43256692859062335
0.43441520713768006
0.44864013811198156
0.4298327059918655
0.4302302385009992
0.42881113381626995
0.4478695392864009
0.4508635153888216
0.4339681451421985
0.44105172015962274
0.4519247984645013
0.4511974807345869
0.43172975033108524
0.42951274803736333
0.4404122394230006
0.4446687488414528
0.4393208961191758
0.449419626440572
0.44589357324672607
0.4324792243802385
0.40417700786624067
0.4499018473516461
0.48578211328389986
0.4883921258529697
0.4940384979009614
0.5402132682801326
0.6122969615086615
0.5951585092540685
0.5557138408353407
0.5285474277992378
0.4923651515257735
0.45106064678417523
0.4014815741438581
0.33558141122063184
0.3292145791260962
0.34098025755264266
0.3351943210028108
0.304061606922049
0.3060189303072167
0.3088175878437695
0.2797149087987506
0.41349896446461576
0.8005672699054704
1.0
1.0
1.0
0.8137872144704564
0.3190588838859907
0.3160980217968519
0.3282389457898973
0.2651559443919667
0.23459885517402715
0.24329377200609845
0.21555531524496935
0.21162961974001598
0.23627998587335647
0.25535433170288624
0.23260640854828085
0.22569417643831696
0.24689298135224275
0.2633421235723326
0.24979172436184965
0.2365609611630361
0.25792082371163644
0.2939812107473775
0.2965018902877154
0.26931535110199967
0.2877070149176503
0.3156642722572306
0.3239994860794272
0.32586945992507077
0.32758352599433527
0.35986932475112116
0.3542896873043645
0.3560098065090182
0.34920749279557367
0.35733612433978856
0.3760551151202166
0.37360338646826746
0.39197897861877007
0.40281514846236177
0.41218242828573465
0.4038737772324815
0.3888248884442751
0.4134782404405721
0.40915931473730804
0.39346917540792686
0.37284034197105587
0.3774882583682059
0.40590773757105697
0.38913381175765643
0.3846863928865879
0.3837232163985516
0.389445652963231
0.3961657162396002
0.38829965974203623
0.3816768121615898
0.40088134340928694
0.4075911965701803
0.39853533765786703
0.39271970515175086
0.39527693431896704
0.39970838255510205
0.3981199660559879
0.40154950447996907
0.3845064927261406
0.381875805497368
0.3911257482569616
0.41054401499592685
0.4472077168084888
0.472235542841364
0.4788128560220913
0.5047937471703214
0.5644146976065446
0.5408264332813448
0.5213462777741429
0.49193907897752337
0.45209044094453404
0.4095209617495409
0.36655104334088684
0.3186788438447011
0.31375473120088115
0.3348821611377941
0.319834423885734
0.30104876645299694
0.2815086130053457
0.28153313918512024
0.42065199238273304
0.8052145267967952
1.0
1.0
1.0
0.5753324745722461
0.2560656358097763
0.3106842865415908
0.3308656264621067
0.2711100193777474
0.24030644823438382
0.2505070898111016
0.24811765824463744
0.2508601534916376
0.23856366031368065
0.24641678931151664
0.25880057821312913
0.27429958898258755
0.2658521633756533
0.2673591658232838
0.272477922458863
0.28356338651396096
0.27951512204494205
0.28752665465670557
0.3073312452328937
0.31384494484145514
0.3192003321541438
0.32247202978253064
0.35286287000451816
0.3644871361621294
0.3579903804917157
0.3670001396251937
0.37206439154493454
0.37420471361159263
0.3652747507515967
0.3719454308806326
0.40611301299809766
0.43917716717887423
0.438054109492899
0.41537968584890167
0.4217044129871608
0.4307966279171442
0.424925646037992
0.3974774760502453
0.39276487933726545
0.40385701424351916
0.418550782162672
0.39492520332704883
0.3882007967768433
0.4039619694993063
0.4171602092307741
0.41108693260976137
0.3972744229992705
0.40810315256062635
0.418022315032903
0.42655794461340246
0.40067255732566887
0.4067330269706716
0.4146374893543771
0.41058456532829524
0.3990560398916757
0.4106335411542096
0.42011833255889447
0.4148572595741287
0.42933962605856746
0.43691158205805236
0.47481879592026
0.47006594973198074
0.5033672454275486
0.5473306505438607
0.5596731278510023
0.5447248999185419
0.5109529747204364
0.45395709451277366
0.4350635368458254
0.4073485557278339
0.37675333929273597
0.3554945470198703
0.3606078960422491
0.37154567903757524
0.3607004928006582
0.33480169797410114
0.32863941620496073
0.49995166790845486
0.9175970936998027
1.0
1.0
1.0
0.4767658788551562
0.2789739774973371
0.35759764561063584
0.3678795442909739
0.31549931146339444
0.31441593207915663
0.31522172609512744
0.30692171140025454
0.314777578544156
0.32107038470156757
0.3178192142522875
0.32314021681180405
0.33223451255782216
0.3338002749435322
0.3387582836479567
0.3411258939096863
0.3540443155464743
0.36908841474207
0.3677135046012513
0.3743534389361528
0.39332331024027056
0.3990167736496178
0.40596727115836495
0.41111354245531667
0.4197511729129916
0.4234458365879562
0.4190732487732102
0.4219503247991483
0.43971273922350607
0.4568596107443387
0.47069120802232456
0.4885852750638463
0.5058638119173031
0.49700748976104914
0.4781640593995311
0.4719624991694821
0.4856269636928657
0.48571447942267243
0.46701016022668645
0.45881142538919584
0.4818699686449709
0.49049755359860236
0.48366174778074483
0.46968128549928834
0.4776488140304732
0.5058362346901332
0.4922284367707233
0.4789052744326476
0.49419732494752333
0.5139572778485477
0.5085914223829606
0.4865126925453006
0.47376088345450135
0.4947466216085986
0.49261091862391354
0.48389804383378576
0.5076817842646
0.5397965606614482
0.5589653443680878
0.5556296467904306
0.5907126728083163
0.6070746988699112
0.6094411467785446
0.6113717982342884
0.5682844859474458
0.522199622360173
0.4785216303160369
0.4420657752425952
0.423026403494303
0.43108616033412533
0.42662323971742344
0.42759375748022227
0.4055223360615912
0.4167665465141896
0.4147975494443642
0.5311157243197356
0.8676989379821572
1.0
1.0
1.0
0.7736687201107382
0.3904525320863705
0.39488101866827463
0.43863788884222626
0.3669570401223799
0.3187948223708803
0.3439733512856739
0.3592650923413295
0.33899350822023966
0.3280277887084961
0.33272747872464015
0.3376051545383423
0.34596735372607085
0.3364125335900875
0.3300569503101539
0.34211809529922144
0.3462420953348234
0.3441438251835277
0.346286757904958
0.36186052870860036
0.3781228511784689
0.3709817691900051
0.3762060822931095
0.39890202425955545
0.39368392324912405
0.39200245256404004
0.4062153369442165
0.40447840334734586
0.4109417173112592
0.40312419792903453
0.42486935766527945
0.4439564962619265
0.4478984163319864
0.43313264298773246
0.437389440826616
0.44812736207842496
0.4286773962412487
0.41890295526916876
0.41037935615153864
0.42723788157852177
0.4344519432230646
0.41411677401287383
0.3997991833053518
0.40764046340632076
0.4331842349541465
0.42327341476074887
0.40419670449580974
0.41377510395865613
0.43606437491783173
0.43404781821993366
0.41025819639532146
0.40719440039433363
0.41796608088560844
0.42610097035480593
0.4080547453239934
0.3995411453682089
0.4138509824388792
0.43938040363122166
0.4371536965628606
0.44761134234343214
0.45565405411418813
0.49643765648490995
0.5337066918629997
0.5213013944150418
0.5024608546546816
0.511054312151254
0.47393886484249653
0.4163285270816628
0.379211940673945
0.3678359958745675
0.3547866534560692
0.34481441115365274
0.33420045334099335
0.3391494914471268
0.33649352847899905
0.3050540388560954
0.34811736656954767
0.5798494589352315
1.0
1.0
1.0
1.0
0.46859434034688086
0.29226141071712886
0.3284438643583184
0.31910787754418113
0.29130329232733465
0.2702850293892603
0.25768218213650623
0.2691524362248456
0.2766296666032732
0.2725032137425444
0.25592374025484943
0.2619536121684243
0.2773210954763504
0.2900802985855458
0.27015724648317935
0.2709922245839681
0.28679006852173183
0.29400076510035433
0.29456497717034813
0.2953273000667193
0.298730170877189
0.31224134286755834
0.3155650222979741
0.32290601844332845
0.3318880543761498
0.33975228752796677
0.34005718438397814
0.3359636643918117
0.3491471425031273
0.356938742558524
0.3545966430144093
0.36244535453362836
0.38408946811159667
0.3936187845413703
0.38421043640259694
0.369501200472026
0.3765277142850197
0.3735236702480661
0.36306550876901234
0.35306157600820626
0.36698565748377765
0.3612970997104924
0.36383821777677117
0.34946641348182533
0.35179509081387617
0.36961360976880575
0.37043938983154634
0.35629713267686264
0.34923142375647703
0.3669962731849753
0.3724969100974428
0.3587920734636446
0.35459730768969144
0.3707159684088844
0.3779812766002171
0.3614713266966211
0.3495941340201917
0.3731381682177079
0.40705740705565463
0.41599567545289756
0.4095435275259381
0.4538705655886197
0.4934676401250636
0.4745464752403071
0.44337538070539007
0.4130090019864264
0.3965985364321626
0.3644018381284088
0.32177352056781683
0.29724000280162194
0.31305970603698513
0.31983353392791153
0.3068477481734221
0.2935175220966744
0.2808790433802693
0.31077803820910216
0.514304899006921
0.923624267904794
1.0
1.0
0.7919769180369116
0.3344380793445845
0.28213511538939084
0.334586834903291
0.28873296779331825
0.24797131141730752
0.2641551229492032
0.27152739636378453
0.25953944269393897
0.2539647788208407
0.2459394575420973
0.2628007266948459
0.27383541740054146
0.26640085286394244
0.25569916050440866
0.2709297821028489
0.2767617988305867
0.28748225168576425
0.28153847865200543
0.28711041566829076
0.29592929222923353
0.3041105243762102
0.3096680147236622
0.3240110690878698
0.33203515199277805
0.3256590504699031
0.33644529606947843
0.35102448994306
0.3507011945649415
0.3389866447697674
0.33420221611419987
0.34662185487050057
0.3739202471155751
0.38706438486674416
0.3817165713127095
0.3850393723707497
0.39386914997029615
0.4048954510224987
0.3786090798722682
0.3727948261325646
0.38212906990502427
0.3838119819719881
0.3712905052805741
0.3611337208897946
0.362142079827571
0.3808315502818225
0.38215672740566997
0.37366903090426845
0.3835493386722698
0.3832396101148142
0.3865147665834172
0.3812945473211209
0.388418800652374
0.38843302875360414
0.38663762682292957
0.3795978950455926
0.38389882326373514
0.39636449912997707
0.3930059959785763
0.3899190498546926
0.412912800282602
0.43249808446057064
0.4488879317789444
0.4564172540186472
0.4983269311224009
0.5073262777824993
0.4968832339629644
0.4696908850791729
0.42979563938650733
0.4132373315571643
0.3881167363076597
0.35766868070278457
0.3445649376381766
0.3510458842852064
0.3650896977924698
0.3452889527012869
0.3226121257323487
0.3378824430256853
0.4988088431172698
0.867850783450638
1.0
1.0
0.9481381884388289
0.4433905602084588
0.3004989048067007
0.3490356452191801
0.36055257352102094
0.325663260948422
0.3058170366721207
0.30805138743427946
0.31560505079802725
0.3224828023105145
0.318505687020035
0.3128722450665836
0.31276454802681486
0.32995674058124175
0.3296451582866999
0.3275866095808852
0.3254535879934258
0.3412195672327288
0.3331638379291393
0.3380095552950685
0.3558229005544146
0.3761738434109418
0.36778540315396097
0.3651919834734344
0.3800559085086462
0.3947002586656191
0.3913799289010019
0.38484594196738664
0.3977067303953145
0.40291369961441176
0.4063068002941458
0.4013179623367682
0.4236231679867227
0.45366915447503287
0.4681484334285352
0.44453808226812513
0.4506245617171558
0.45691207152924385
0.45713045291158166
0.44079144352310273
0.4263310199027047
0.43244961180459096
0.4426789314966494
0.4464250778104601
0.43477052029490204
0.440613570000301
0.45114390180773284
0.4443549236568745
0.44251117344427177
0.4487724622169288
0.44424527559406213
0.44487001425921713
0.4453616790084582
0.4518927413809889
0.45612812219703847
0.45074499691997866
0.4400616143595987
0.4401753761013435
0.4591683528251179
0.45259327904354063
0.44298497762922284
0.44744531022098116
0.47726619749594573
0.49342845855718237
0.5074149608760626
0.5298182421266502
0.5340489810071802
0.5392606812034042
0.5288453499183458
0.49040174620607074
0.4488259590058871
0.4277649128265361
0.4069449284240017
0.3860786386943863
0.3835902260340885
0.3902240470585537
0.38505939414937107
0.3686093086468648
0.34857124690361607
0.4402441279324737
0.7087976529726632
1.0
1.0
1.0
0.7055826958828941
0.3674126543885917
0.35374490761289135
0.3915247784444988
0.34818788250074517
0.3107111342615396
0.3139772758247833
0.31338752587418994
0.32293602874756056
0.31462002698563457
0.3023258187741956
0.29942596892764767
0.3227664875018109
0.315945434789067
0.30082477620860526
0.30417632900037417
0.32364083886389167
0.3307794413328443
0.3273092559511763
0.3189855831402813
0.33607674298882645
0.3458524745827566
0.3475924161018469
0.34719337969703296
0.35858458623564005
0.36669766602125636
0.36956621954990365
0.36266652636388147
0.363702402624691
0.3706555166493687
0.3654496491280494
0.3710110915353707
0.39995087762868636
0.4122779498481369
0.4015694694316266
0.3932563004615262
0.393515647991407
0.39659612722612314
0.3843235978508096
0.37032244826565136
0.3781392089925683
0.3900790706910138
0.3839345750005237
0.37097875002504865
0.3666297927030472
0.3831714487544837
0.3897140608623247
0.3822870375855148
0.3728453621205647
0.38293965363514804
0.3890293420019881
0.3859175674622414
0.3737949489247639
0.383897059048949
0.3903676414424597
0.38979269986793563
0.3734187130265121
0.37929366824655986
0.4025407636753842
0.4220159728743238
0.4210939942524187
0.4442770456168379
0.4745041734971133
0.4808029522850421
0.46468904207462797
0.4665404619290018
0.43723989991843776
0.3997504535870088
0.3702387681587066
0.35145180077625104
0.3439396694872758
0.33648334750020137
0.32277882678707454
0.3219507389959745
0.32475018556166135
0.30831412566497346
0.34364175481854237
0.5155645446240686
0.903767499233528
1.0
1.0
0.737152447967976
0.35870657714115406
0.3209487351424786
0.3393979630813056
0.2942846304998486
0.27145501609080525
0.2845935219935487
0.28793962153960967
0.2734803724053285
0.2657082499483142
0.2823307228238485
0.2884842460825293
0.28311371106750916
0.27388130217356355
0.289374258990157
0.29245147746527744
0.29686343835302453
0.28940710995266616
0.3004358646852525
0.31043571483443577
0.3177624671051186
0.31932941982101326
0.32146307923901746
0.3340383239646752
0.33961994282912206
0.34031639472306513
0.34846524639522825
0.35354544606722527
0.35462738086690077
0.3396457779931172
0.35060617757981455
0.3721866166502149
0.37839932126415815
0.3724833308033116
0.375130581678497
0.3810939364480516
0.3811514157971244
0.3645345573700817
0.3665144482222251
0.37333565952210657
0.36947443141416547
0.35895559526164394
0.3619310079247985
0.3754215078101805
0.3812036213385027
0.3629052041940898
0.3600862391726034
0.3719997299564735
0.37556358676121027
0.3725704369920745
0.36830763515979215
0.3719453118520007
0.38853668966370825
0.3830480972205611
0.3679755170686415
0.36675584398566413
0.38909493812358276
0.4019151958522751
0.4062941776749417
0.4170829996487811
0.44123919635046216
0.4748085420127481
0.4655912440825059
0.45095733371548097
0.4539305069007935
0.42578355215851393
0.3894832773398106
0.36116831696794816
0.353394247581964
0.3560518640447204
0.35113693310629096
0.33767157527488006
0.342485222616164
0.3385409069342435
0.34642770407916307
0.45494186079178717
0.7512362073303485
1.0
1.0
0.7853510490655558
0.3822730420274165
0.311479713557344
0.3538026541728313
0.3328185425747804
0.3085114181428355
0.31843585699397686
0.3162587575930452
0.30595308267344556
0.3060276115442232
0.31976637630869326
0.31421740844685075
0.3100658349001614
0.31668546459045965
0.3315657889887936
0.3333789300445072
0.33302858662295864
0.3245691626655199
0.34291067086686605
0.3516889191668611
0.3548129787926132
0.3493647260697605
0.3633233800413782
0.37544109807611
0.38147555590539833
0.3726118971228388
0.3738525353207411
0.39232214691317946
0.39312575961796425
0.3783923672022472
0.37871169156601187
0.4099847276692773
0.4218913938777395
0.4203613685376502
0.4169254742494409
0.43106904024505405
0.4330338104137731
0.427951288372582
0.4126039743855463
0.41714100226676604
0.41348086971161335
0.41246435318497887
0.4115323368603206
0.4216250921313597
0.42018030115663124
0.42201611029194713
0.42122235940562475
0.42513645689652896
0.430173544015472
0.4250202536917575
0.42368670543719
0.430528785501342
0.43652716677469705
0.4320705533314161
0.43116856819528493
0.4304427851748338
0.4415835104746139
0.43260000420742034
0.43620931839557786
0.4483852143943904
0.4686637669134803
0.4815214802426128
0.49977513444495864
0.5111980443891467
0.5117285785497383
0.51747658095926
0.5054040715651936
0.4698775308805064
0.4470935620957065
0.4333257792058527
0.4231088860245296
0.40843078400406857
0.4061226032098898
0.41435583040218316
0.4163969686788927
0.4112991495638155
0.3948284567077348
0.4760727753156
0.7054158497577184
1.0
1.0
1.0
0.6074484345122794
0.39252659007662827
0.3987369272214597
0.43716282899036124
0.40392554250780294
0.37398953327457896
0.3725722004842143
0.3874883604329142
0.39149274763795044
0.3820498641905129
0.37804068047357026
0.38717672874479775
0.39537315626992575
0.3864379246826755
0.38322328021294566
0.38790916929511016
0.40220991390195604
0.40445912655797384
0.3982578062907691
0.40386374845195483
0.4123839146512923
0.4228808803305643
0.4137024459375537
0.4141147053443678
0.42585974721508624
0.43960976410125874
0.43829992730052786
0.4352976267192711
0.432563540985426
0.4344290263571581
0.4395465443167672
0.4474402786674747
0.45561181727304306
0.46878640738922844
0.47002193648684143
0.4645425816174976
0.4760174402207798
0.47874516489900554
0.46934485855746944
0.4608877716034649
0.4605715827901431
0.46991546225990743
0.46638253760468074
0.45505466635201836
0.4577019423388175
0.47164947765384085
0.47333914893247797
0.46713672237181836
0.45540144390872833
0.46893261445453904
0.47739924528573774
0.47648141212468553
0.46612861866877847
0.4718082110475592
0.4790372638294196
0.47642171978510967
0.4761759016476669
0.4715444651072195
0.47476378550809545
0.4701258691822009
0.47136112498522403
0.4873614731034957
0.4946831061723655
0.5011495737342408
0.5075833047774254
0.5381771587640771
0.5494319800752059
0.5413760180538978
0.531957863939294
0.5216062772816467
0.5010923823662838
0.4795014092939279
0.4460052094389579
0.4322428706045316
0.44322343548263266
0.43724692653552033
0.4238418069697908
0.4149793448436011
0.4104520252546271
0.4158175218485084
0.48785502514165174
0.6872250067560365
1.0
1.0
1.0
0.6659060923737394
0.4383265025546933
0.42384287184124664
0.4322172242815645
0.40812095051309055
0.3879147369070102
0.3957524101314032
0.3886404154571187
0.38638566063154445
0.3894914649243809
0.3987061891260788
0.3906933814346752
0.3895006949158046
0.3916320937877712
0.40019354215947445
0.3957115806130737
0.3892361494888947
0.3973685167114341
0.41392061851326944
0.4162910108350906
0.4071666107363675
0.4086468620183097
0.4272216593709365
0.4341277184222202
0.4335213139842792
0.4291234664764242
0.4388289159152935
0.4460950568194238
0.4392425122828749
0.43421682159862973
0.4457604668283076
0.46046085299295997
0.4696487500999556
0.46563525198179123
0.46434915078410144
0.46608294856016946
0.465875509741463
0.4592526543047099
0.45999367667574065
0.463939192740283
0.4612257751856954
0.45245648737202265
0.45057685721727625
0.4635297157056688
0.46618058279654384
0.4537855109610055
0.4555052043673419
0.4705294876172671
0.4692195621548807
0.46722753249163834
0.4533226248902274
0.46208793396128733
0.4759208828403144
0.46926127294190484
0.46181712559131516
0.463534671652764
0.47496799876747636
0.4735994775041547
0.476197980247818
0.4827059844120301
0.5026674049111686
0.5163377932755726
0.5354050036077264
0.5363071808934625
0.5341914514849799
0.533876868887928
0.514793791102955
0.48449885392256686
0.4694211963807082
0.4461548915914787
0.43689059139025915
0.43589729225172286
0.43146472515138423
0.43013485434595067
0.4243014365335197
0.41300795131160833
0.4358433437054353
0.5509457850477177
0.7794767441673393
1.0
1.0
0.864649788710105
0.5116530237814211
0.40426928894943626
0.43514676826569937
0.4340723729602531
0.4047949173998614
0.38765424074799404
0.3872737606620028
0.3914252471967402
0.399740242094904
0.3918629118340675
0.3926592447412026
0.390477479750183
0.4028680568074883
0.40331153655252117
0.3964004299303058
0.4058777154893164
0.4147799665377264
0.4204300254604174
0.4152400935296222
0.4219557386616376
0.4278090777792472
0.4328846889468558
0.4324119745714272
0.43896687985611466
0.448710155484899
0.45010610537311485
0.44478893753611687
0.4478569633080206
0.4539919142523101
0.4521199492536582
0.4547027405718763
0.46577925155736094
0.48084835168845175
0.48485413770920643
0.47889196922974725
0.48254594578621723
0.48430338584348387
0.4802529139855857
0.4678448275663574
0.4677927646707104
0.47469969907961457
0.476413779933935
0.4690520340623836
0.4673198571522864
0.47480113524558815
0.47876519901400627
0.4738406195003174
0.47040847339590036
0.47282859303920255
0.4809772508873545
0.47933619119555787
0.4747777288081646
0.4716184356437315
0.48498615931805916
0.47592281115263607
0.475028176641599
0.48355883150213996
0.5114731774411327
0.5182231224655545
0.5239754528485918
0.5427186090914177
0.5498330270576627
0.5448814548665013
0.5263856988063697
0.4983218322710729
0.48442114241820977
0.4765356706598828
0.45772477427642977
0.4458082569894907
0.4432274316141652
0.45449953303653096
0.4550357647357834
0.43319665663794205
0.43735693860936686
0.54797113426766
0.7941826884835786
1.0
1.0
0.8289564442494182
0.5108483447620172
0.4272499789315118
0.46060533731120934
0.44341951415514125
0.42513577295124544
0.4175013126304462
0.4224380691644348
0.42411210613306966
0.432089138097535
0.4265837888556364
0.42464762467317047
0.43023172188424874
0.43788882305950894
0.4354615886599743
0.43937939976693235
0.44119329444981126
0.44415494866199856
0.43946790737780017
0.44217106693208275
0.44836414486223763
0.4569960625807217
0.4616177481682248
0.45556975383928267
0.4641428954501374
0.4744200264132661
0.4741803959848446
0.4613058615951607
0.4696086335701846
0.4810325530921902
0.4853186320458794
0.47534260205859785
0.4823562111718768
0.49566245600378045
0.5106235304293409
0.5113403929687184
0.500321010048482
0.4949888016835569
0.500810672345386
0.5023428675196875
0.4917963658477175
0.4927701189692014
0.49702138181232874
0.5003428285110363
0.4960398342385976
0.49472520536861586
0.5034288866653975
0.4981560680761274
0.4940962533378939
0.49959153105010523
0.49970743576783494
0.5006478366366264
0.496801262149864
0.5023756618677989
0.4986769597832558
0.49784631683318825
0.4965846908976904
0.5030621294390069
0.5108444093704744
0.5219281842567457
0.5329726301552861
0.5462679855301505
0.5673352986487601
0.5772506773713848
0.5666615448849031
0.5601730844558481
0.5388297771091748
0.5151852914458211
0.492375519249488
0.47259994101151453
0.473638816066853
0.4807501568547111
0.469300235152242
0.4616746415279615
0.45597241054863247
0.4645950904412543
0.5386001573962269
0.7423637117057323
1.0
1.0
0.9392163345829605
0.5578282040090248
0.4279355443034098
0.47483214646657884
0.4800564369037114
0.4419909837705435
0.43243874367290713
0.4373663066138295
0.4481131130592438
0.44438117109781494
0.43649329916734575
0.43202009685258264
0.4416180314347075
0.44553259275587614
0.4437331030876587
0.4415498652618921
0.44790114694355765
0.45264344003575835
0.4468169397183791
0.45588480537922615
0.45814551992593316
0.4666272775010517
0.4637801426941749
0.4724753350308683
0.4774544366537657
0.4793076831646694
0.47465452748132897
0.4783678148313218
0.48932674764468187
0.4900955906718544
0.48308156614748965
0.4809277614130859
0.5018628214131162
0.5170464997358117
0.5174777029914212
0.5108791403817368
0.5075213894369506
0.5149893269985458
0.5149393498041434
0.5042882735773542
0.5042919718904766
0.5153594670123136
0.5096571826691698
0.49196898602829287
0.4977062839901656
0.5090527868007557
0.5076332615624042
0.5070035317333423
0.4972120350078836
0.5066849074379536
0.5084826007234667
0.5118531546610006
0.5044423054955126
0.5054999648159353
0.5043636780577428
0.5036011806174084
0.5055628619107063
0.5060512214036283
0.5113092406579761
0.5099875604065524
0.5187564103725137
0.534148224314924
0.5488224362342347
0.5561134246477717
0.5709154765196681
0.5652229043471924
0.5713361694923798
0.5554594240710997
0.5206875875191262
0.5005352781625023
0.49740293720687356
0.484095323446237
0.4704093246740702
0.46342803588259873
0.46647644360026197
0.478368025386092
0.4484027446751542
0.47461766562539986
0.6579050310029335
1.0
1.0
0.9308968604366699
0.5296825923109619
0.4364246289499379
0.4719294345140989
0.4534409642715641
0.4283045541737812
0.4373492338925368
0.4394679718982325
0.42775734834931634
0.4292578129600904
0.4408444820018251
0.44307133402710147
0.4374558790478284
0.43354308515497725
0.4426178004213008
0.45249438321965096
0.4470822717698425
0.43998516362226897
0.45617155639198187
0.4623743321865078
0.46338989652859885
0.4671344310249988
0.47485516302046155
0.4759174667590586
0.47469457388604946
0.47830972413484146
0.48689864457641197
0.49270151216373115
0.481594830103697
0.48059355471362963
0.49413759490241266
0.5074729015075468
0.5108898381105275
0.5104804343954014
0.5143698852301676
0.5249842528976781
0.5192922271722024
0.5052771355889085
0.5010492291560789
0.5112406459274721
0.5146132271008228
0.5036714130769008
0.4934942691779014
0.5008712910385503
0.5167434650301652
0.5059675999198202
0.5011720805041822
0.5012835853408832
0.5141912373163169
0.517253191193024
0.5068035457182802
0.5105293887238791
0.5094756399613206
0.511566051789352
0.5075437234219876
0.5070949259459961
0.5091430901871135
0.5220645266496718
0.5279319951783281
0.5461193326830083
0.5569529691941589
0.5664652647006477
0.5798932206874008
0.5883265888968656
0.5883132692418745
0.5762730979097686
0.5551411343854067
0.5321384284953824
0.5229574590148569
0.5007762582710107
0.48724446152554834
0.4779099188944259
0.48659958222229494
0.5010370344341315
0.490874109752525
0.4673620759956451
0.4741473753879066
0.6026151699354695
0.8725133713882329
1.0
1.0
0.8592050179213409
0.5243179432477059
0.4504364330288819
0.494249937909047
0.4980512250101645
0.47036923394781727
0.4676292411756796
0.45878555014122097
0.4592484407637536
0.46919366391326267
0.4679928788489442
0.46816510265169164
0.4776235606971941
0.48101125621549173
0.47843461619945693
0.47636595098451656
0.4824859166770327
0.48534081781365457
0.4866098275551276
0.4913103270865826
0.5016091840097772
0.506766756926639
0.5096183915947023
0.5127335121135579
0.5196966180936552
0.5224833058280718
0.5233937200623844
0.523583423383793
0.51973745457763
0.5328236877693875
0.5358315546994468
0.5428219006859571
0.5543199845127662
0.5781196933648799
0.5808170347639192
0.5782456702464864
0.5638085963616832
0.5690332327491732
0.5683369224460225
0.5648074576857519
0.5550896076540589
0.5677117415891857
0.5834682755629876
0.578553416374898
0.5658653421767995
0.5665822282126258
0.5734893547716798
0.5805165130636407
0.5761962086523255
0.5696843188616822
0.5789782044604522
0.5833644130250482
0.5852899474001393
0.5749895638411412
0.5871630855984489
0.5771957517966
0.5737647421679066
0.5763398057151885
0.5985056448077746
0.6098820933238327
0.6104957079851241
0.6265047078164399
0.6574610890929578
0.6683069350096292
0.650530268427818
0.6494674029953809
0.6344005845269832
0.6074696026352879
0.572952859369564
0.5604116926235535
0.5605248232676201
0.5649666523285519
0.5558861832126558
0.5529102366327746
0.546195100081086
0.5451248723870687
0.6178106914054633
0.8143445842353394
1.0
1.0
1.0
0.790259561707372
0.5422392450026975
0.5388378893081744
0.5809141190718174
0.5468249374154942
0.5273059053533464
0.5248050834002974
0.5416001385504079
0.5342097174368127
0.5273302051721533
0.5310309462503736
0.5426678108365898
0.5382416030392039
0.5224378194865025
0.5353119085765105
0.5486396082434426
0.5378117935551882
0.5351064371848236
0.5474150014554091
0.5556945049535655
0.5605962477477472
0.5515139358829129
0.5538290869341287
0.5713722545981837
0.5705677871479836
0.5674477519250148
0.5692002974394161
0.5771736705242545
0.5776979993587537
0.5755893319282746
0.5666455193145227
0.5806467353414496
0.5875045825638099
0.59725613522483
0.5973578972156994
0.6075264892321787
0.6020307660330131
0.5990919840946474
0.5919534595642472
0.5924436791479372
0.6001947588546186
0.5906629764879143
0.5879594227216334
0.5849729265707393
0.5948989058054184
0.5913760502606895
0.5887828556816573
0.5897268949538365
0.5923334444642234
0.5922890091139718
0.5948933195313114
0.5913389398485833
0.6064705787480046
0.6015871821449027
0.5922635651138148
0.5921852783498529
0.601709362101855
0.6021309176557058
0.6002534847109808
0.5996709243941944
0.62649231723427
0.6429870764386221
0.651567247464415
0.6528574615500631
0.6566706131686757
0.6600725088593558
0.6464375206152341
0.6015420337116288
0.5826491033471658
0.5751476127777642
0.5661017498903328
0.5497745779020156
0.5449630246452684
0.5560981834213794
0.551988623645947
0.5249072870457931
0.5495641828843347
0.6886160973584861
0.9618789136117151
1.0
1.0
0.9343425085888413
0.6018303353687388
0.5282350505069928
0.5382547476321449
0.5250024433068948
0.4968308352664187
0.4970070134642112
0.4927215963356401
0.490655779424981
0.4925780018461084
0.4907581470747274
0.4876777362862659
0.49841686070300595
0.4997448736907829
0.4971186044733947
0.49532642386281
0.5024561438400595
0.5106578108649626
0.5138208709044833
0.5066832490132519
0.5127769496276888
0.5219132753880771
0.5229777290471566
0.5144245475417492
0.5237352264689872
0.535681882389247
0.5435406296458153
0.5432170630781107
0.5283351785438897
0.5357292278756626
0.5418757913143684
0.5425745200659482
0.5415309711047771
0.5545364063846321
0.568273445412426
0.5582191201527168
0.5529443479407499
0.5515768990844447
0.5589479441367458
0.5551290822716857
0.5485526456418297
0.5397824955610151
0.5479220136113547
0.55299672326047
0.5516680058494299
0.5429491699027256
0.5609996622336069
0.5555654514081481
0.5565484079274867
0.5547389453036785
0.5585580792048702
0.5569943031360234
0.5514814926646141
0.5530726642760734
0.5587777927270586
0.5631092435397036
0.5521017797615863
0.5457372270080937
0.5576944289268335
0.5768680506386988
0.5802439788652988
0.5843530326578559
0.5971140792382513
0.6267449437542372
0.6228655918426732
0.6048146583955575
0.5986930314082096
0.5966913889141648
0.5655698366488797
0.5367425163106321
0.5169863672266632
0.5155149170481362
0.522100393266734
0.5038109720263243
0.49259803989141854
0.49844016167811656
0.5038974141532438
0.5740587588039366
0.7687604972841632
1.0
1.0
1.0
0.6357299443796673
0.4707572158694441
0.5059733439511674
0.510277010092963
0.4736780265425732
0.454407920726144
0.4710837160275424
0.4688791007960595
0.46307099826270237
0.458238765842723
0.46860309287305346
0.46790048359458875
0.4617936371418311
0.46398420535951856
0.47121092457351377
0.46884849510414195
0.4693125786040303
0.4681244730501537
0.47671379168063927
0.48853305252028106
0.483232789280675
0.4869411473570689
0.5004494846254184
0.5078547180618898
0.5077678604572424
0.5026851026332074
0.5131836613116619
0.5137225952288629
0.5135203094233425
0.5082835837817221
0.515141722533927
0.5367504639943725
0.5392418233710838
0.5350822588840148
0.5330001585281986
0.536123064614859
0.5364727570874723
0.5264804303044094
0.5225393813737328
0.5313690049233506
0.5320821299512385
0.5205050099347581
0.5198617469205885
0.5327580215960322
0.5392723828366744
0.5260372854915363
0.5261006787792832
0.5384762022095462
0.5393323240616033
0.5398853743186283
0.5305093577487544
0.5310387542213556
0.5359176687694143
0.5447239414116016
0.534890572286552
0.5322107763847204
0.541659299405466
0.5555467660114768
0.5621366095060256
0.571745215739145
0.5862538159781217
0.6070340318111999
0.6008362661807707
0.5869319829452767
0.5866622443388205
0.5631259958668595
0.5297221174113815
0.5017045144205948
0.5026964700695639
0.5056580901428503
0.49401355019446613
0.47861173550647373
0.4835937499591777
0.4924162405938125
0.47543054220125847
0.5105658971623614
0.7078724466652961
1.0
1.0
1.0
0.69432475490374
0.4791864268199265
0.48607601070078427
0.49362225590208536
0.45078610202554714
0.4418560838552484
0.4461886180046747
0.442231436699803
0.4343814466136403
0.43621552174876654
0.438326161804269
0.44436806800171774
0.4410589540099449
0.4445987474709672
0.4483306652521854
0.45426902995525775
0.4498138617072855
0.45361156162986377
0.4617211743939267
0.45915315061256745
0.4625658574001246
0.46976180996594374
0.4743125849920745
0.48097143926105385
0.4784055223332886
0.4824529796912006
0.49031264539966973
0.4893928563426151
0.48216998996225835
0.48206697587076774
0.4973353853352762
0.504145814777709
0.5072753133652281
0.5043502637359332
0.5235452130844552
0.5191071552417851
0.5135009035508572
0.49993220480967376
0.5019038131871191
0.5069006940062848
0.5039532659102931
0.4907987386925849
0.4994924564623589
0.5073420119567812
0.507328360375017
0.4974727329981562
0.49268174675177423
0.5052237718782022
0.51125495408496
0.5005968130948727
0.49384543469309355
0.5032584707375509
0.5043045594629337
0.4974094986367105
0.49442944396488764
0.49785291416092853
0.5021429121774588
0.500963825297329
0.5027322075991233
0.5251661323548655
0.5348397141392033
0.5458770091677053
0.5679369503732704
0.5834598291186672
0.5799408642492223
0.5655636302697407
0.5428157845468985
0.5222214044574952
0.5102518074662422
0.48370173712625847
0.4576910229451161
0.4635861752064202
0.4696532829145168
0.45321905976964183
0.4479575614802596
0.4386004054507026
0.43945052248664374
0.483215997907985
0.6481878399974612
0.9900967051343486
1.0
1.0
0.8810350029702633
0.49798343817613455
0.42184206026787746
0.46985546509781917
0.45037183284776194
0.4133932104570427
0.4090751753257056
0.4187261890270989
0.4144881186617453
0.4057733136978916
0.41179055799625647
0.421004405175891
0.4247594866111492
0.4124985755919983
0.42054003868728146
0.4393679356106632
0.43024027830018347
0.4182066527881851
0.4243008015997402
0.44157002153451963
0.44669508094939914
0.4417014202795869
0.443789989861694
0.46564891197104064
0.47816795799666945
0.47470455640874115
0.4652612321950147
0.4738752208105332
0.48993181382314005
0.4819726187175011
0.48130040216515296
0.48556090641375727
0.49847070040503016
0.5047026985278433
0.5222776076716127
0.5262845886455108
0.5366404071923903
0.5295226813541472
0.5201183798710264
0.5198393409778939
0.524321209178756
0.519486125734671
0.5171077559008264
0.5091507394618238
0.5184589405195832
0.5180533529837386
0.5100951708790571
0.5057028541498417
0.5190685844646264
0.5191659354038777
0.5125661294683997
0.5218137897255992
0.5221640147267805
0.5220161386219597
0.5132674565946933
0.5121846694252363
0.5326430074392527
0.5341625478213986
0.5112158698277758
0.5154627409585179
0.543936794145047
0.5685345673455926
0.5782274072159753
0.5816324659341908
0.6169799702168589
0.6432283573460895
0.6181552382724074
0.601948148441523
0.568186606974757
0.5433915339539742
0.5298231860324909
0.5025348343002419
0.49071643678715143
0.5061378421469463
0.5048899806705572
0.4912674892675996
0.4736214488133014
0.47805441816473226
0.6363199166653712
0.9811379768214504
1.0
1.0
1.0
0.5641703975614625
0.4377812764223144
0.49300121560929944
0.4878932309085225
0.4510697934939956
0.4472172410991802
0.455992880278158
0.46089400694386884
0.46038402101080794
0.4627644897705195
0.4608538045899426
0.466430580989352
0.4650306065296134
0.4579222830981095
0.4732548382438571
0.4859975038665426
0.4756082831297238
0.47729788156306585
0.4896779907913654
0.507937392389876
0.51722050780756
0.5127138339896431
0.5067456290667492
0.5314861398820643
0.5378055443404258
0.5454645130388455
0.5433201465582111
0.5495283611115018
0.5510384498676233
0.5470131434294048
0.542684718521822
0.5719087050684648
0.5989694433960014
0.6003383494550845
0.6087954276744053
0.6020518916562787
0.6015042626889521
0.6048179981431787
0.5948956685059719
0.5900878653214471
0.5933177425225368
0.6023214673495945
0.6044206157442804
0.6041263544523112
0.599697878882194
0.607956919759941
0.6074301761047345
0.6136745819018247
0.6094223867424344
0.6089110293796387
0.6118905305593352
0.6092789512508401
0.6122023094861414
0.6265684181539096
0.6144581241999173
0.6097588095818596
0.6083636839511879
0.6292037872978861
0.6218841224240138
0.6233190013961026
0.6552220456299424
0.6824549622359962
0.7030372440450574
0.711899607462349
0.7072941003417046
0.7127687426250305
0.6936008673091792
0.6415004383981043
0.6066684544119797
0.6002296881764826
0.5989512545629098
0.5812863178748133
0.5747917296811424
0.5849651501705984
0.5887113932261461
0.5709846399148921
0.6125148371247902
0.8459046778852531
1.0
1.0
1.0
0.8979581723075387
0.5806318956425179
0.5706940870543218
0.6004142481611127
0.5487723550330317
0.5353600345855846
0.5578007869277302
0.5441457883690578
0.5345199148390892
0.5427636528393815
0.548514513148353
0.5480484023891738
0.5365111106365911
0.5399404600646982
0.5504633823244804
0.5510807507581327
0.5498378490641574
0.5619940927512206
0.5740560946637787
0.579788423176847
0.5731149954114434
0.5770019015752295
0.6028650123337503
0.6086904965596895
0.6015735615162848
0.6034603663410348
0.6081879305013036
0.6101548209822526
0.6099927457002392
0.6213399201255043
0.6380819603540793
0.6514672344001713
0.6501806021239809
0.6492074829540354
0.6512877772566578
0.64277913084626
0.6368874653751262
0.6342166624223765
0.6420605633467318
0.6507159063350396
0.6322236420255333
0.6263325708456579
0.6369861596434724
0.6491893392464293
0.6353101960465259
0.6267470080173654
0.630287252708726
0.651895350343805
0.6498578769416928
0.6375009836052599
0.6306159241190656
0.6462971942861263
0.6467258601565506
0.6345317247051774
0.6320092611699334
0.6420574556456762
0.6441491879698835
0.6467530200867906
0.654762933116087
0.6785621177402057
0.6997366458527593
0.7225851342904999
0.7305820675565488
0.7208682770777216
0.7250129858867267
0.6866805311560532
0.6474561840442075
0.6282811677799629
0.611283993447036
0.5858865224407022
0.5779078590022511
0.5768378629288871
0.5827139811679277
0.573639856279989
0.5474616754160151
0.589522760812671
0.8000797788442229
1.0
1.0
1.0
1.0
0.6600322389455157
0.5502993940869315
0.5675075232573576
0.5595318666365656
0.5295711057587713
0.5200136111597919
0.5104354336332457
0.5132504049905036
0.5230271543725893
0.5158777891993703
0.5064751878933976
0.5112152471553569
0.5272088758922295
0.5195560252845977
0.5190392340201883
0.511110694407906
0.5427984603471561
0.5482046867800143
0.5407267983972639
0.5365145664871335
0.557298101955224
0.574410633743106
0.5691279237240494
0.5690828027178247
0.5841062971347248
0.5921290057222678
0.5832075608837941
0.5760131904418311
0.5918148899519122
0.6109514568156175
0.6165537153515339
0.615559716253576
0.6194305658062601
0.6245207102697318
0.6227491122338873
0.6008057835372813
0.6081513309715302
0.6125980170565226
0.6094732322880919
0.6034166226287881
0.6034754876732451
0.612662403190803
0.614183126435848
0.6101125861784844
0.6137403415039838
0.6170301288145146
0.6240525147897504
0.615432855266073
0.6173659346526896
0.6285970843609714
0.6337879137449098
0.6209920057320789
0.6191163482754484
0.6277314565198451
0.6377802635871145
0.6303642696213398
0.6256180532202167
0.653596764147858
0.6841373287254868
0.6892496400594693
0.6934231375275574
0.7199073249880795
0.7298410749186506
0.7251747259508333
0.6904051381356323
0.6551522491382334
0.6333046753819442
0.616995987502993
0.5888502980260059
0.5821557843361819
0.5798607378594818
0.5760181201047629
0.57228335928223
0.5555956103486206
0.5476383876402903
0.6127892672681066
0.8322374259441991
1.0
1.0
1.0
0.9859569239825647
0.5953719097258865
0.5497944124392049
0.5859074711658123
0.5400706241209354
0.5036005465801423
0.5112802904908809
0.5264229514058526
0.5070974516234603
0.49378482307470095
0.5015393946150654
0.5233804292624354
0.5148545948377607
0.5054566047153191
0.5086857560562805
0.5225361229249831
0.5281369109184381
0.5269997164718876
0.5271935379551279
0.5431529641672709
0.5523445188668488
0.5512504029950375
0.5538651561020875
0.5775132169607415
0.584909246536358
0.5733411016147486
0.5787542146583325
0.5894758118004828
0.5951645255044091
0.5883130477455625
0.5933070513072243
0.6017982896144938
0.6189244950538212
0.6267356348418008
0.6212136776543481
0.6203226278919443
0.6259372351926704
0.614043147413133
0.6106088600894568
0.6104822278175482
0.6089982691431237
0.6097340318704484
0.6062534686463168
0.5964912018932551
0.6108097624650753
0.6129783804989735
0.6067346915558158
0.601301499009077
0.6234215176284017
0.6354663595688634
0.6127287231125967
0.6111464482861567
0.6275559032554607
0.6226229654866456
0.6127198077396419
0.6117097648386365
0.6171115179243124
0.6312644039466623
0.6424459118360082
0.6485594356541978
0.6793349981503827
0.7027493656514558
0.7365411757271741
0.7281683801798537
0.7104459499902533
0.712455810419186
0.6877031380130306
0.6413148184860002
0.60657095034995
0.5920134473752914
0.5990091893470796
0.5861879404204264
0.5765570965674074
0.5674370811724249
0.5747354538843108
0.5518606920018791
0.5916250374496523
0.8026254251021931
1.0
1.0
1.0
0.9478808689035961
0.5687094620189305
0.5571708732826921
0.5898358514497504
0.5604534354093395
0.5306548185330939
0.5255907645924794
0.5226648161449318
0.5248501189993882
0.537159457419472
0.5351988782149778
0.5245182701762285
0.5296507752180143
0.5532888824883951
0.5521968252483977
0.53974257731909
0.5360972686874242
0.5636856829242525
0.5662201919191829
0.5620801037811395
0.561318334370002
0.5731462412500108
0.586482867075315
0.590484417425053
0.5842127802535018
0.5932354385164208
0.6173781207362021
0.610648206454881
0.6108157319191605
0.606381868571938
0.6115554643961091
0.6160630399065017
0.6177222934792106
0.6343454122886285
0.6498745774760707
0.655582025880802
0.649304735856495
0.6475808194596422
0.6423267761173641
0.6354384901374389
0.6286635777261247
0.634095479965241
0.6353183043354909
0.6425201155391889
0.6364194217096143
0.6288550296087376
0.6381240535906937
0.6470217822435702
0.6352783768344444
0.6157237542611731
0.6281053587058423
0.6415002822275575
0.6316561484888823
0.6271363698562826
0.6227479629005409
0.6421836483956987
0.6338287754078225
0.6183012414215401
0.6094053915694773
0.6380732146546332
0.661074786730755
0.6632553961224333
0.6622215790397914
0.6929598021440989
0.740820407730164
0.7363749722651761
0.709754407410953
0.7054244554215942
0.6829742335644072
0.6366134760179086
0.6065691419636379
0.5856409491080452
0.5867156693581786
0.5937175706496227
0.5704669578426805
0.5687187514100984
0.5667641255987772
0.5588561276033512
0.6728436916598963
0.9759393490092206
1.0
1.0
1.0
0.7015996287719222
0.5348051386687812
0.5777197501314353
0.5719723316559092
0.5226155577128802
0.5272319963409985
0.5377884698616888
0.5234292831360103
0.5169345903424867
0.5257509795599216
0.5373118846503379
0.5316701344787674
0.530207289492798
0.5258551059204847
0.5431144545886221
0.5472400715973003
0.5414707136374003
0.544048400042694
0.5539483277762554
0.5600558221242438
0.5589277374676833
0.5642915513112656
0.570145554412967
0.580135081068269
0.5850376709579179
0.5925273530680121
0.5956361607306555
0.5959318897787836
0.5921042930328546
0.5918719964392368
0.6017865435821135
0.6065440482945382
0.615992298555221
0.6271402862698219
0.6484273477419308
0.6536749380115318
0.6407053815668736
0.6264354944616413
0.6349352449167456
0.6422740967639049
0.6262855524831183
0.612116037104869
0.6134679309925787
0.6341182914716645
0.631048700313187
0.6264401573921453
0.6157771744376724
0.6248275592738141
0.633630409643472
0.6305914339846261
0.6259517441036275
0.6343209429054045
0.6286984517754285
0.6287185464321936
0.6295356436195811
0.6262058840903104
0.6338941033012835
0.6230886863918728
0.6272319133249489
0.6369477414912581
0.6497006801064947
0.6561598194349076
0.6544496075655795
0.6658651607412527
0.7062491393245013
0.7264259984114967
0.7122253440927508
0.7096064523016393
0.7104172067966841
0.6674045335285242
0.6251366345444002
0.5923964491001489
0.5938040456876645
0.604219925708789
0.5859960646468356
0.5782528868161007
0.5799889923590285
0.5791525259979855
0.5632006308216562
0.668674070863337
0.9872738090963612
1.0
1.0
1.0
0.6985041749465566
0.5251723381727168
0.5671991253199702
0.5767829421149371
0.5389605954294365
0.5241438499542775
0.534479137761906
0.5276541441433619
0.5267419196143817
0.5381113248757543
0.542015486701359
0.5466056965862574
0.5393750464761385
0.5427478892480919
0.5483509357535898
0.5443953316094281
0.5555365406309043
0.5715874107174056
0.5714582232676533
0.5708385419581105
0.5730060873808416
0.5878141513021771
0.6024436222158924
0.5945720605653457
0.5936865926031921
0.6087093548996363
0.6122235694835079
0.6056365128945312
0.590888882705101
0.6203982653919413
0.650676032216365
0.6532254700199907
0.6417730664337448
0.6533335766134634
0.6475227896047799
0.6371188966910288
0.6296015782570515
0.6253858565120651
0.6363624204454361
0.6376932869171625
0.6275403494773661
0.6191626101554256
0.6411969245095546
0.6405090683761874
0.6341271261006437
0.6335371789167329
0.6397878435191202
0.6411767240530426
0.6454941735762626
0.6435218606051747
0.6478326911985255
0.6571503316562046
0.6621607194229722
0.6506294569340272
0.6387159877576261
0.6421442788025729
0.6593400456995584
0.66414749986518
0.6885636089169779
0.7037640109156579
0.7275105026796915
0.7437808270268377
0.7433746842083282
0.7330396603621583
0.716937252103314
0.6788951781032073
0.6615049698565578
0.653173708966564
0.6284337399597975
0.6137431330585902
0.6078614497981432
0.6168070742869419
0.6190005570992343
0.5988939184089468
0.597659345300453
0.7323446874349223
1.0
1.0
1.0
1.0
0.7878019824478536
0.5821104199471105
0.5923618972899007
0.6196805760362454
0.5918680898409067
0.5726837301300864
0.5676497747349576
0.5492004393788632
0.5693219274097108
0.5778167971423535
0.5718071950727687
0.5644238895305304
0.5736075941386395
0.5823281722955806
0.571064069630006
0.5709129658248134
0.5899755531327029
0.582083760803162
0.5832018063120147
0.5871497049987087
0.5953039053225349
0.5987873490181275
0.6049208680000019
0.6114495420426712
0.6210758676883853
0.6251453767808648
0.6164988976908794
0.6102000566790888
0.6160728814505653
0.625123821277634
0.6231313480743766
0.6338314755959537
0.6542369639624127
0.6612362789221021
0.6495426614320041
0.6409371759423144
0.6419531195358569
0.6491974680330059
0.6453553125961341
0.6216254831512534
0.6133935907092116
0.6281611300679494
0.6283393300075637
0.6217328310794248
0.6221069884100435
0.6326039265728134
0.6387118969525998
0.6377171509728404
0.6250833922769747
0.6313705282829887
0.6403067556981846
0.6347213337505941
0.6230284601165588
0.6243041525954005
0.6314642209930266
0.6244798358583444
0.6125283990473508
0.6284413321129354
0.637476199467256
0.6608317048228347
0.6606004057268704
0.6777568449583391
0.703444865238453
0.7060765258503942
0.6886702064016574
0.6738920153197133
0.6527949851514272
0.6231992110264538
0.5930764196219809
0.5755999011300617
0.5722782261325066
0.5769839588044001
0.5663355149714071
0.564655969243455
0.5488309223240717
0.5952355172481252
0.7704005694875917
1.0
1.0
1.0
0.811745453909466
0.5442710967677099
0.5487729575001776
0.568270320117667
0.5269960894370309
0.5056261832646742
0.5057417763685679
0.5083472632690398
0.5160139084519229
0.5023224572021744
0.4955557852320715
0.5006080169236254
0.5097444963018563
0.49296200072735863
0.4895017332341376
0.4960015030304155
0.5082434326431111
0.4999922306115055
0.5036192855771294
0.50273141540103
0.516781674719941
0.5255878220634761
0.5183517405819222
0.5284811840174014
0.5374163244056578
0.5418236716745948
0.5381874077273674
0.5390073712927991
0.5388307717670525
0.5433735567012099
0.5371497804490548
0.5493704792639974
0.5650526503829456
0.5702869754000865
0.5603659519156345
0.5661499690082188
0.5704307411984789
0.5671760385602341
0.5556600760591708
0.5504508612200494
0.5600048994365893
0.560060798652861
0.5475721467203438
0.5367024472329555
0.5437561478688954
0.5464595047095442
0.551196131254984
0.5448713369637168
0.5444702459231513
0.5563338595047329
0.5580603229028858
0.5474556308886398
0.546011227115255
0.5530697915354142
0.5585101537660923
0.552286467245577
0.5375976776819301
0.5413544404091309
0.556613463257651
0.5615139817368191
0.5658226979059163
0.5889242564883681
0.5972837166273249
0.6109707972246655
0.6128272845875739
0.6153767602477853
0.6211972552315841
0.6047507851821553
0.5639540729725345
0.5408094140801816
0.5231140640158094
0.5086795811358946
0.5054781028722477
0.5006721104504029
0.4941297479972164
0.4975191029202544
0.48496603518996595
0.48926890239068355
0.5929210077605841
0.831484061484949
1.0
1.0
1.0
0.6798652896224315
0.4832637748881905
0.4878293829873332
0.503273943208763
0.46668365936395395
0.4435479338544074
0.44347443048838214
0.44737762116500124
0.4498031908373671
0.442150096114176
0.4364498122836822
0.4415610991599138
0.447646848996337
0.4432325590855237
0.4400329831026458
0.43951237852326336
0.4524617580953296
0.45695119657811034
0.44851472577059404
0.4484445843040815
0.4611977716503867
0.4712669643191
0.46305649175741354
0.4726693862859359
0.4797982408854251
0.48509179834401905
0.4857675800704574
0.4945322962155297
0.4900627991105397
0.4913872100292636
0.4939978040664489
0.4907803342194678
0.5051069642732722
0.5106432745689267
0.5074597807178773
0.5051550105263559
0.5222947906969237
0.5197553975953275
0.5142007062375661
0.49974899253816707
0.5027234949171
0.5101953719030498
0.5050178251825288
0.4944355588645285
0.4952288859167496
0.5014203382990707
0.4984513319949861
0.4988633584468132
0.4897693268479192
0.5032018247627221
0.5041926132968981
0.5056268135161941
0.5042782784596798
0.5028200877306452
0.5045214733569308
0.5027620861881923
0.5004380234858297
0.5032310845727996
0.5042279415574336
0.49503732792581123
0.4954396408737781
0.5082405571106968
0.5273634404970113
0.5310618324272321
0.5317395553703779
0.5572601316342614
0.5899949494040542
0.5863201630697555
0.5603112052693155
0.5603896073142737
0.5414082714611326
0.5118490099349061
0.4796132358200319
0.4612693574715806
0.46721998666037345
0.45977234257747235
0.4470354594190886
0.4443585744435534
0.44059422824660965
0.42987145152323114
0.46896659400389673
0.6478159498213819
0.9928377497940473
1.0
1.0
0.7040233311670091
0.44453073911317853
0.4370573552114987
0.4614778395469087
0.4187158086059597
0.40036228181142486
0.41299451149096045
0.40970149500395064
0.39212873185177344
0.4012948496682521
0.4104881715727939
0.409703644903909
0.3990290809518171
0.39572576862220654
0.41555161814026664
0.42067188832162083
0.4168204010254655
0.4101258747047377
0.4325530318238485
0.4330269033550544
0.427240882503736
0.4237745724314392
0.43830773903697073
0.44928638883191513
0.4473089706296557
0.44941126217940425
0.4554058234869219
0.4602352608556002
0.46148792274384665
0.4557315918765884
0.45557989173698027
0.4770574307107525
0.49175171855205324
0.4867045045693124
0.4851604403544891
0.4835031430715751
0.4888584020848511
0.4790250756166897
0.4684562642763077
0.4729851783404637
0.48087124368152334
0.4718566317520481
0.4697544023391321
0.4720354929079706
0.47735856878612204
0.4800400526575504
0.47427371280009967
0.4768679452137482
0.4879000222809209
0.4774832732849541
0.4719955265775999
0.4786161635989479
0.48218609980385185
0.47851182884302973
0.47338486814879027
0.4676455081496685
0.4766131916903246
0.487782827115722
0.4772795244669289
0.48922780929311854
0.5167878878512614
0.5295845275044064
0.5356916706174526
0.5497771923302689
0.5563286071751277
0.5583293483884917
0.5302717917301452
0.5018890695198149
0.4791435019865986
0.45872038151191274
0.4432291849621097
0.4274624872582301
0.42829737896085557
0.43448745034361236
0.43421938998563914
0.4231049531527786
0.41203478488429823
0.44454982057394066
0.6061593778734393
0.9190214474867908
1.0
1.0
0.8319745020457214
0.4672283484032868
0.3880375205923893
0.4378393832384685
0.41437741005983914
0.380162893488321
0.37285504918871126
0.38352848063417594
0.38436741678228986
0.3864027360280655
0.37897908568542255
0.3757319365132209
0.387342583968755
0.4005547926402263
0.3893325087575842
0.39214837501063377
0.40058614825105304
0.3989952894089108
0.39923361689136155
0.40499369263932355
0.4111949748212256
0.4173634241171057
0.4169017826162927
0.4227739951909242
0.4348024194658726
0.43057600216767444
0.43556559717065735
0.440471949351689
0.4432821729074175
0.44309147954582
0.4412076785628563
0.451519682100389
0.47578228647900067
0.48522294202454114
0.4729323093085703
0.4646836290084564
0.46954122327300424
0.4726947308453651
0.4716264573683249
0.4541898336420115
0.46186793345813654
0.46446282665121696
0.4572902084390395
0.4493199813522131
0.45359269823101933
0.46843524792433316
0.4711139487586663
0.45168340014028246
0.45303046965985316
0.4616605241650908
0.46933641549272354
0.45379286702398536
0.4518924506285704
0.4536340017791307
0.4648087149439439
0.45747737637714403
0.449197708068128
0.4610060798530822
0.48666054161752703
0.49602504093928107
0.5000099956985797
0.5281828770277937
0.5520438967881385
0.5444038168627868
0.5229416082954189
0.4928183885566034
0.4691780524198209
0.4467159621752919
0.4262693228811509
0.4160278653163836
0.4222493123918902
0.415250936022925
0.40645170417716814
0.4087966539465332
0.4027147793481277
0.44006193368404833
0.6429518988026525
1.0
1.0
1.0
0.5951198763711678
0.37668366007505993
0.40367851045265635
0.4263380619832907
0.3881437068671554
0.3638748365619583
0.365761558244116
0.38335925799327136
0.36892025613027324
0.36922872120075156
0.3732217191819133
0.38608217535420775
0.38878648441277786
0.3838811922749187
0.3780865674952966
0.3895224318025209
0.39205984464298793
0.3821836690260062
0.39521384345680943
0.40833887365794386
0.4095826705152391
0.4037791198785542
0.4096486968279593
0.4211204728060389
0.4324726920763483
0.42628179474549643
0.4264429126806631
0.43805614141934746
0.44386460480143164
0.43432372801022473
0.4361607755084599
0.4486831843023478
0.4692596668576801
0.4725505739585481
0.4618291992694271
0.4613716447561068
0.4753156491003304
0.46554418448527857
0.4502104558309288
0.45506512892855666
0.4620739451456787
0.45886564670907914
0.4527074598054095
0.4481918354062347
0.45523826573277215
0.4637737274938667
0.453320315046058
0.4512535928353111
0.46717426263712997
0.46527773237065795
0.45432643545840107
0.4539858357462968
0.4564975991994798
0.4615281027416097
0.44846203108401655
0.43810769939601196
0.45024428324764987
0.4618940397425047
0.47819392427684076
0.48396832525444006
0.4983140624302348
0.5259798341098668
0.5492964776095624
0.5286050844449257
0.5225695559800796
0.5206228160977064
0.484139837489619
0.4412039520404334
0.43183195494105975
0.41963551319853776
0.4171639729769196
0.4165999862564548
0.41829730208311505
0.42142667253027605
0.39464342228410765
0.39736446725981944
0.5116136861394571
0.8107189218500181
1.0
1.0
0.870987693087495
0.48255168303785767
0.3776750428283594
0.4115442986242915
0.3997027621943571
0.3731128797343002
0.37337983236519523
0.3753654495992122
0.3678829090346563
0.361401015735429
0.37543017941793155
0.38126644795077236
0.3702329530659255
0.3693263223483385
0.39253916876577505
0.38282649732246776
0.3782198584432261
0.3812029205054559
0.399428208519126
0.4049079063213153
0.39351470113116216
0.39942116838052993
0.409202898189229
0.4247336175306649
0.4296576096604202
0.41596638073548897
0.42287179261761454
0.44226113617621793
0.43868094232294547
0.44003847221419595
0.43951405169970864
0.4469531296313063
0.4452903438008449
0.45864886215508943
0.4751315957072557
0.48236262183748113
0.4807926760114081
0.46738481444863905
0.4656275847937227
0.4801274883929927
0.47105510530762473
0.45951439810548694
0.4584842072644699
0.46221264725528466
0.4757267677462256
0.45596341119862893
0.45574540467015884
0.4621136393704669
0.47560588354211575
0.46162982970560507
0.4631590497638203
0.4626028373738259
0.4664208229647671
0.47433053955992427
0.47102333341596275
0.4600548336635898
0.46494928667784324
0.4614406047424039
0.4618570464041559
0.46528268969954656
0.47984345089625585
0.4921342530019569
0.49894740983840286
0.5060547377085866
0.5462432163449822
0.5519730810340052
0.5342673692271417
0.5277997333798001
0.5021785648753244
0.47920583942750633
0.4535376513636983
0.4408579981732898
0.4475208912801528
0.4387619777468837
0.4233884636963808
0.4254747684122885
0.42553593829673275
0.4198242436346974
0.49101270511197914
0.7302692331941447
1.0
1.0
0.9044597404782859
0.494565264967625
0.3864875881046892
0.4380453007009528
0.438492849917664
0.39781197547934494
0.3691101971975972
0.3892529653818849
0.39457111612411183
0.38390875460583596
0.3764710838178916
0.3900839466129581
0.4004124730933773
0.3903712473627966
0.3921789059593099
0.39425406159685716
0.40691544743122776
0.4101552748721451
0.40691839652526907
0.41011751093183435
0.41302153332695746
0.41879854336528577
0.4177388796836309
0.4316436640293217
0.4417910059500209
0.4463108618403372
0.43718379916873873
0.4294192717090414
0.442905492817094
0.4428416613854506
0.4444825218983852
0.45863967851158816
0.4682772512774722
0.4666742119111257
0.4737846937222322
0.48103750939095136
0.4786828350385669
0.4748060138022459
0.46383129146359015
0.4632076214111236
0.47048610404719404
0.4718749595776745
0.4593011270589561
0.4522741418638633
0.4623773471819078
0.4706001724321732
0.46466697266173923
0.463193145381927
0.4592961108044863
0.4608795019097949
0.4622199022131935
0.4674668346401682
0.46463765095440274
0.459099935105609
0.46480999271305257
0.46357124832192537
0.4590310891424686
0.4662760451259794
0.46205529350264607
0.46059399679787905
0.47780423721924714
0.4881158361298391
0.5038374312683814
0.5104454527786326
0.5018969611677714
0.5454172248387883
0.5521667495555945
0.5273418505439247
0.5063563812710178
0.49302143463359044
0.47634378500252106
0.448785276539527
0.4260841410819937
0.42268134849486555
0.43181457320232824
0.426173343787709
0.42272826080686093
0.41184876951429406
0.4006982637457486
0.5035689225236706
0.7521530115956969
1.0
1.0
0.8908509892613663
0.5112464656306354
0.39113126029804723
0.4216785914712099
0.42577898480555715
0.3961116997079771
0.38695342871090443
0.3930015775017499
0.3957964500661152
0.3910339547705946
0.39072250531980496
0.3972723718385911
0.40094578626124305
0.40093210856745476
0.38957300908522813
0.39973414474947455
0.4206985587134674
0.41145718039072054
0.40797173221336624
0.4135622606411363
0.4234950867269965
0.43500235516569913
0.42081456218138713
0.42435261707651184
0.4469981886815508
0.44734733503286683
0.4402283975768927
0.4441538448610892
0.45580814319024154
0.45233831947120484
0.45344431332853646
0.4598387651072916
0.47436960077012824
0.48236872049956947
0.48524298527876486
0.4761981527802913
0.48137791866826757
0.48165664856295975
0.47592650483100724
0.4776517186530246
0.47063987376328364
0.47920426872931354
0.47160832532241476
0.46589080455009624
0.46617117384812434
0.47789653213962247
0.4766806415067619
0.4729208835271185
0.4771492540425225
0.4886431757995765
0.48131033782895455
0.46091000306160634
0.4698513818460678
0.47845609991238947
0.4828350635454089
0.4700769354585585
0.4752489252363034
0.48803439689172723
0.4859674533284647
0.4790927496433267
0.4936404860992867
0.5021097644110997
0.5205408430103822
0.540559588427761
0.537207512729287
0.5505943768998052
0.5580784054726328
0.5473428973017718
0.5267130760109111
0.4994659869321751
0.48806043886822587
0.47613164374693423
0.45271333239471845
0.4459190906868593
0.44714262394462906
0.44806581346940166
0.45004961253822084
0.43652929327919016
0.43004334366342595
0.4690883723530666
0.6579482992925393
0.9956856768993007
1.0
1.0
0.6620456684698596
0.4113956891875025
0.42699674023419093
0.4663403941161409
0.4323999613929154
0.3973957523586199
0.4136592307632931
0.434827483305024
0.42737897816889125
0.406234808255181
0.4225814420015343
0.44024096506525207
0.42938221193047815
0.4293897713541327
0.4191581068159159
0.43183746630780667
0.4390898834988993
0.44234528144896734
0.43629045443632164
0.44492347418378797
0.45991166200718114
0.4718840851847873
0.4529919271215901
0.46064743821915044
0.47569451256127976
0.48285554203437764
0.47871322075963174
0.4829549670348231
0.47774879720713137
0.4754347795897478
0.4803472095986428
0.5012357793008553
0.5197828629050714
0.5210220883575499
0.517869508022901
0.513826153789844
0.5135155095521589
0.5131571156355623
0.5052618707834781
0.5012571592250794
0.5111221578176701
0.5140921143912172
0.499242761624448
0.49614899643068516
0.5138487706646344
0.5178308738559588
0.5142265604921199
0.5113897008348813
0.523278725404973
0.5260313020457758
0.5122248721190713
0.5131917581640446
0.5237447366184809
0.5140717318353432
0.5161302011897452
0.5216482622846541
0.5219753771549965
0.5384017381317387
0.5555192286975342
0.5548759484818071
0.5736972325130877
0.6029081558058864
0.590422956485502
0.5926376490482876
0.5757534052474153
0.5467193061866771
0.5224765523746138
0.4980794847402496
0.4719766655222018
0.4843388212177954
0.48334341374029866
0.4690079782947622
0.4666336500586086
0.469866565098464
0.48865675691049526
0.5932651068204576
0.8667636574136406
1.0
1.0
1.0
0.5750417423835399
0.4278367915632323
0.48120913655880637
0.47879652919036675
0.4425815283092362
0.4241708905611584
0.43498492734065974
0.4416772624845354
0.4366349172571066
0.4356404944774489
0.43307732274998384
0.44315314255507243
0.43462167831328974
0.42346487927608223
0.439630729793483
0.4477245134844138
0.4455209901366337
0.4496216958119962
0.45160765822907567
0.46232390669618767
0.4577845498899057
0.46338836158535435
0.47520425953999573
0.49294880478126
0.4785206782893797
0.4707006685810624
0.49034029751062835
0.5045117550345632
0.4937838425776671
0.4883611641049246
0.4887864175462234
0.5082018605113362
0.5274466180611694
0.5311009283957924
0.5264749670620968
0.5337996733002828
0.5339188467637759
0.5145724464314477
0.5018589882120357
0.5119628895506377
0.5287612273312553
0.5219129421918347
0.5034889020214065
0.5108555676726534
0.5251925258649658
0.516172560623911
0.5133029640343458
0.5146239449157004
0.529278723188865
0.5300723838963289
0.5185570793854903
0.5231087445783986
0.5396240282566502
0.5435590977017533
0.5266474579951667
0.5157618496335363
0.5307443486927383
0.5449041305144345
0.5443673913956741
0.5572499271281022
0.5699766491945475
0.5982866253593689
0.6244101389874016
0.6061518716159403
0.5993049034604927
0.5857245734644103
0.5609678233624854
0.5273610172658063
0.5005960533669414
0.4934721001044803
0.478686549446181
0.48334795281480736
0.48486462255487933
0.48185823453365983
0.4773604479951287
0.5936068744597728
0.9096135537580574
1.0
1.0
1.0
0.5715817571473285
0.46163995329529445
0.4995185807550967
0.4716391078454961
0.42564314856384583
0.43209189440067297
0.4416983995414337
0.4204254328543769
0.4283859872716686
0.4377378867242855
0.4416497721128062
0.43717109822282285
0.4318123815589634
0.42241984346884076
0.4484049253810768
0.43972178492750835
0.4311117584881533
0.44276787549848307
0.4637845424020715
0.46258578661447797
0.45239587398611264
0.45734420453851676
0.4713762659888234
0.4764359406300083
0.4794855881380321
0.48785978083918347
0.4938903102031159
0.49570620242604724
0.49535324842801864
0.49254746913583813
0.49807790121940154
0.5108079400071524
0.5190212812084102
0.5127706224175893
0.4999529834694525
0.5146086103642145
0.5055546366237369
0.5009459789996182
0.4915904128161673
0.48952924112541674
0.4965487719732996
0.4865235822558131
0.4838369637732436
0.4978255548750141
0.5010992905612123
0.4967079540716063
0.4866917435089196
0.4920248183521285
0.508420417134153
0.4980564642312693
0.4896169838613302
0.5084285745038943
0.5040449039957889
0.4931242928026444
0.49703403195172974
0.5117007716511421
0.5122268034463149
0.5063226482673199
0.5205995201393155
0.5531589625086991
0.5731946725763631
0.5754384855009563
0.5733043524716723
0.5767919431492199
0.5964859576411377
0.554303448846575
0.5017835333532544
0.49054007704630614
0.47243985461110194
0.4539468661176043
0.44025491769340147
0.4397949878688824
0.45010560653068143
0.45058757395888505
0.4304592037099214
0.47922164397067757
0.6847937026552152
1.0
1.0
1.0
0.8585075411731985
0.49086304338336817
0.43889701617386534
0.4539755015244995
0.4287761581447217
0.40309110100990847
0.38943670254302615
0.39789905053693425
0.3901276982296991
0.3877506294977871
0.3823908770684759
0.3849973345460552
0.39223894808336734
0.40077868671897915
0.39422860510592367
0.393169471384801
0.40173235258477635
0.4019738670644141
0.4158769214405068
0.3920524424702764
0.39787677374875435
0.4249837839323032
0.4399374544915964
0.42212788488696906
0.4213710541768303
0.43959598414193823
0.463115055557666
0.4534871469097551
0.4521894178624265
0.4442232878378706
0.44350345506849764
0.4690615854251579
0.47271412413357056
0.470288765632461
0.480227137749582
0.482528019194446
0.468716070648338
0.47796414602915355
0.47681021159692943
0.4585145840280326
0.4518629071018244
0.4593801660217001
0.47097156300732224
0.4660580479951575
0.45497952226471616
0.4560822979175766
0.4694985104910514
0.47054614169810033
0.4618357278933713
0.4610006383372026
0.47842297288091
0.48154297280423286
0.47160148602327706
0.46456975802083955
0.48038439553043843
0.49150797766983095
0.47359253826071857
0.4514780060801945
0.46912175021327773
0.4915834899336871
0.5008695718211695
0.5065769442797933
0.5127885074780159
0.5411538287094642
0.577737160089977
0.5745974143527331
0.5545992803657596
0.5581882704115444
0.5457068793626455
0.5129171859827248
0.4757740057868225
0.44231974374970806
0.4355357451291481
0.4242881513697151
0.41796796472916553
0.41617050188034677
0.43326465985466384
0.41855207806636907
0.38195972139629875
0.44807809937362164
0.6834435384477879
1.0
1.0
1.0
0.8645990928760348
0.4707723889970212
0.38005330368473367
0.4237869121346721
0.4084724925602316
0.36215606029045305
0.3486565075600745
0.34976490665476906
0.3418973599099533
0.3507719613253605
0.34981621098112026
0.3479142805084505
0.3580453160496445
0.35793222420968435
0.3631534267788332
0.3504288552073693
0.36580225291604973
0.38065731787221085
0.379624947801059
0.3816376343835818
0.3838645485177864
0.37805367398593337
0.39242575332202023
0.3952810941397079
0.4102657192390053
0.4236299089744409
0.4202337483826777
0.413758179451197
0.4238049866949335
0.4331738641703599
0.4259969681497413
0.41650130387894296
0.44030774565602504
0.4652898296224725
0.4661320926014926
0.45500834462592854
0.4403537861351263
0.46177867118070315
0.46434967255414394
0.4412694763595314
0.4246422347993136
0.44038622280356066
0.45416784369874225
0.43696435398816974
0.4264441690875215
0.4383724961880052
0.4493570145843844
0.45838604643303593
0.4458819886387248
0.4342156615478648
0.4553223299328685
0.465808616240128
0.44798963657055657
0.44223887853535604
0.4493565679632979
0.45160938866803857
0.44556507559353575
0.4615643086609693
0.48742343064290494
0.5051552641882764
0.5062964052491021
0.5479368316057303
0.5619686428881276
0.5417825451059654
0.542366935141282
0.5216758774763102
0.4788627177615207
0.4610881399649891
0.42267808943339763
0.4020420352623956
0.3949861445977615
0.4069908865972103
0.41313766184117695
0.39165978403208357
0.3742601234236064
0.38783420800301205
0.5145759863148396
0.8335713607322204
1.0
1.0
1.0
0.5417403329929488
0.3559635743877423
0.42046503388802137
0.40512455513406725
0.33752792741157356
0.33612969606646753
0.34369681950382924
0.3622519495129088
0.34656445713989187
0.344426764065776
0.3484326746466083
0.3577753476095597
0.3608568073545397
0.3520538735780089
0.3441990784066208
0.3610034317500491
0.37226401868490167
0.368301413562112
0.38776899766921546
0.38528801102942467
0.371616476272728
0.38463355021027534
0.40521535315570983
0.42422449465184175
0.4072102669197021
0.3944591196923567
0.4210436524263952
0.43707174119570624
0.4385436630657245
0.4246745028987964
0.42224177699668364
0.4440868731798833
0.4748348704749
0.47242068796561354
0.46440832919124875
0.4620629070033013
0.4695763326132162
0.46720350472349004
0.4492593295538404
0.4482506539945767
0.45816796634072976
0.45367557810270825
0.4441324686433285
0.45246642430593653
0.45130136834329654
0.4594282732580856
0.4578918444494729
0.44158736752496025
0.44827010759384756
0.4625165418566223
0.4483039511145036
0.45319462118055587
0.46472240530845427
0.4613141254868861
0.4556451470886141
0.4493814710235153
0.457458589946242
0.4711300632591045
0.4781644728397746
0.4872933792760515
0.5141752253728553
0.5643970008849957
0.5591872623742711
0.5387187594294435
0.5511824932041747
0.5283556787099439
0.4625337230628516
0.4260559084937496
0.42407806600446285
0.41942499454717364
0.40164624905199287
0.3916716504883433
0.39484636787716515
0.4093560325032703
0.3776012905169784
0.4231857769312814
0.6799229913372674
1.0
1.0
1.0
0.5894475223158511
0.3411074794430344
0.40524947500955805
0.4056030113183752
0.35377569124464936
0.3425241887600222
0.35737019320620633
0.3527637019148904
0.3374611687095198
0.34419580084353624
0.3576638938692536
0.3627390343303277
0.3450320259977645
0.35924708637804226
0.3810820530788285
0.3847018838508765
0.377565618307367
0.37196008811262044
0.385867989132097
0.39627595081918193
0.39801356292415885
0.40508013181144814
0.4185334495399776
0.4284918726223724
0.432702738724716
0.43471711804514224
0.44051780893661296
0.43420013447467243
0.4252801720431387
0.4328817390327021
0.4584112116800549
0.479033634117879
0.48123704332601847
0.47711015614657903
0.486278433939303
0.490456588344228
0.4918295059532752
0.45717160121448036
0.45222177411892606
0.47561919745190406
0.4677832966503085
0.4637845801012664
0.4601873702362644
0.4816136822383064
0.4756542382488636
0.46134972815302894
0.46621183106725417
0.4777315572439439
0.4714557548927253
0.46938574894939783
0.4554550627513672
0.4690989284302113
0.47852144146452674
0.46844898593287676
0.45921183462555365
0.4645971547774083
0.4791019578514895
0.48946298799601584
0.500402289172827
0.5276684124329744
0.5488135555526805
0.5778432816187833
0.585287663785564
0.5729450850419395
0.5735831270504675
0.5319422705414769
0.48777446957277276
0.4580535368134816
0.4444866975217961
0.4270778797674665
0.42560957821375195
0.40917168513901536
0.41170486244229376
0.40936599040675004
0.38322631540899543
0.48358817563061274
0.812088897350615
1.0
1.0
1.0
0.6151109280937966
0.3658214824132333
0.40614649439654
0.4066647570746255
0.37146929916360366
0.367980488409091
0.36499539872930636
0.3497473837822516
0.36165432945457165
0.37354628558673963
0.3689992231196543
0.3559646302287978
0.371289201381279
0.38801823537922286
0.3806882002292119
0.36316561461962127
0.37862292909624184
0.3928442837362642
0.39459517731144544
0.3970375661518032
0.4051337505370318
0.4122185612391493
0.42432833700206896
0.428262635408257
0.4245281354411129
0.4329235375525016
0.45165069229329075
0.4488751520575692
0.4501766999689768
0.4423553822785847
0.45893540167171826
0.4985084596918258
0.4861210330736436
0.49009972933502394
0.5037696141371353
0.5065737230495928
0.4911439872598666
0.476604378885075
0.48316082808018573
0.4802009629016054
0.4804887898711252
0.48377510161577525
0.4895511246173429
0.4840886115278771
0.46710390017725556
0.464732653376503
0.4828449196971814
0.48097972926987886
0.4815775816982085
0.4702617750804353
0.4882015069399337
0.49757594994055954
0.49668276607012124
0.484699898096422
0.479565071417399
0.4861877882111697
0.48879491571352285
0.4834399158370565
0.508543678936901
0.5444021436043214
0.5599222099183028
0.5521412983461556
0.5887802782802639
0.6180819906057907
0.6113890121256406
0.5897594266692973
0.5448955034258066
0.5069929274493458
0.4791099473623655
0.470071065218561
0.43995636456895265
0.4380717218431074
0.4457984862287249
0.4296756048762888
0.41707979030929004
0.4233868378797048
0.436775657680887
0.557985465338786
0.9226860268087268
1.0
1.0
1.0
0.5675075785424186
0.37677836795917247
0.4535657211208385
0.4499346666588761
0.39002146834768886
0.37637164329877626
0.3982706918704678
0.3984956292797285
0.3836604739520487
0.39282584116653807
0.39530348270883875
0.4028226270520995
0.40342016605760395
0.3909128647317665
0.4087655741389581
0.4328355126142288
0.4256037875579214
0.41934822504608577
0.43838523102703525
0.4567904300981757
0.4592945969408532
0.4522007129563054
0.46649190583799854
0.48094436553641884
0.49261507491324635
0.4860021128913584
0.48382447636822157
0.4902377879503332
0.49838972667928
0.516844500304893
0.5272109800122645
0.5482891697991553
0.5641268749824601
0.5372304503537209
0.5316113757669098
0.537604048177762
0.5316693378452867
0.5198356242055803
0.5141471268783597
0.521843746838381
0.5286434118268357
0.5297791364781361
0.53181890851673
0.5438310668904355
0.5379596576847796
0.5298812525835148
0.5349217781396296
0.5381318548671739
0.5575329346722446
0.5593432978151774
0.536368399247608
0.5396460794848992
0.5719501960060089
0.5597337649193481
0.5232998819568517
0.5417889229115651
0.5974746753959811
0.6093797271344675
0.620016353843793
0.6491756798720812
0.6951113472718019
0.7048826671164402
0.667957422025581
0.636515153199219
0.5907078735882274
0.5697835770511729
0.538699244134669
0.5108733197770002
0.5064806910413536
0.5186622273880828
0.5139080611300438
0.4963496869908665
0.4938579735347125
0.4864845037188347
0.5591652332476444
0.8302868799438728
1.0
1.0
1.0
0.9679047849154824
0.5207673610422565
0.48049114967288353
0.5452837363691424
0.5027169372093377
0.46131318196195376
0.4938635061708242
0.4857309327189919
0.4669774519436455
0.4703200460202474
0.4839112338424238
0.4971765414858506
0.5039011116233748
0.4861052413115872
0.5010975278605464
0.520351333539192
0.4918948962436245
0.4827036398372485
0.503804235662141
0.5224772277655544
0.5292338473373144
0.5365833159862409
0.5426510231395643
0.5589196753363488
0.5756052390448064
0.5723696690151647
0.5699974296667801
0.5977661358824713
0.5783663372012419
0.5691482013928264
0.5780694722889292
0.6053135991955984
0.6137651903911061
0.6233358748592414
0.6371580186605648
0.65668865298458
0.6517345503675174
0.6296980014817686
0.6181264850173172
0.6158832305372783
0.6219310720728709
0.6213065585943418
0.611290532660607
0.6323317326422715
0.6518272909159057
0.6372147020967308
0.6197239929021662
0.6198672026764955
0.6496610805544527
0.6586317514085624
0.6325556580348223
0.6317720580106165
0.6528052050555557
0.6468157371237788
0.6543496707780977
0.6363392619853359
0.648576916931115
0.6524661886416252
0.6660601480839403
0.663445833870114
0.68513039672396
0.7070446669898244
0.7231404824239476
0.7486148081909827
0.7543915258773317
0.7554436737428902
0.7495755587874477
0.6989193050887934
0.6478451535681916
0.6214184258261135
0.5948634686201021
0.601196807793765
0.5902870558678048
0.5783570358407255
0.5726468025958438
0.5653566921427959
0.5489485981142024
0.5856096446969811
0.7842293548142363
1.0
1.0
1.0
1.0
0.7716269963247226
0.5253988994656822
0.5557421967110039
0.5819954385039792
0.5367777921522905
0.4910735141944861
0.4906278270701196
0.5010861854541293
0.4967292984800234
0.4926854264537262
0.5016801712375152
0.5003817494430141
0.5030801842098647
0.5022895313613487
0.49733939419692935
0.5139233405854494
0.5250246116174089
0.5195313604301668
0.5035555648389172
0.5258703591164051
0.5279827801848688
0.5299626667719595
0.5343601281213046
0.5605665867999574
0.5553297263027456
0.5385117417809128
0.5493264698906094
0.5682564220474775
0.5829692396658188
0.5710237891486667
0.5577675589625075
0.5793463155027473
0.5908485326421433
0.5869092874830574
0.5914020913458842
0.6047321531161796
0.6125681992253198
0.6052208509639547
0.5856291562544198
0.5670921637228749
0.5788427734476269
0.5905765183968493
0.5810420222600824
0.5714749239712089
0.5670233330520604
0.579978752512677
0.5563962394323541
0.5722650982179918
0.5919073867900286
0.5849353593050101
0.5703320049224762
0.5688495536752424
0.5847662526365454
0.593307548821189
0.5783262779367527
0.5893920973261636
0.5759719971738598
0.5738568045096041
0.5823527317394982
0.5919753256813628
0.6058446958469359
0.6411342366612264
0.6436626517979223
0.6673018376166904
0.7053358706610929
0.6945072830179397
0.6691354868916688
0.6229261472414658
0.5831704047904429
0.5729992045440853
0.5389461501112442
0.5013677706214791
0.49668121076380656
0.5175984854621454
0.5026501419928574
0.4745710135597386
0.48820041491704896
0.6661636648099559
1.0
1.0
1.0
1.0
0.6022713802136589
0.44493686085941403
0.4897636353688347
0.4727139868822169
0.4325993149297737
0.41443889354950036
0.41206481355627134
0.4102671289539986
0.42100912131435564
0.4154787748432572
0.429709779964902
0.41385568044545673
0.41369038550000886
0.4313675723418477
0.4242624469850651
0.41944843171004836
0.43930224834407705
0.43854024456214225
0.4327221227517219
0.4345016378401335
0.45229568846888873
0.4639050650211319
0.4695507185697573
0.4737114984919522
0.4987613103077619
0.49974141657137644
0.48527191098230354
0.48759636762144665
0.4966570303849025
0.500385008426964
0.5072949374095578
0.5085984751469121
0.5203588067978894
0.5276013718906725
0.5228661057331385
0.5008239222818016
0.4935353159382852
0.520787613773238
0.5169873376076248
0.4923356846357799
0.4888300254144527
0.5076831191917226
0.49759145616806794
0.4937549121604752
0.4803350048699458
0.490904998308437
0.5137037040507473
0.505170749402778
0.47184538815741756
0.48040298223466643
0.5158994139740259
0.5128673445758716
0.5042013658142486
0.4907016897648373
0.5053422133059269
0.4986549179969038
0.49255912022237813
0.5037052949079899
0.5276578255076805
0.5537710289612703
0.5620738983275342
0.5860853671593228
0.6155683549792329
0.6044617600274798
0.6071868767135352
0.5966095380332461
0.5553384344301332
0.5209016610004806
0.48473059870566776
0.4529190971198601
0.44081346300259583
0.44661896140730717
0.41927484452956393
0.40044048829068035
0.41106467733788354
0.4081916527507842
0.5165120772070664
0.8816154920264303
1.0
1.0
1.0
0.6012459814782114
0.3787046715436978
0.4267129659226117
0.42319631762693977
0.3553730667786287
0.3525578090396131
0.37485959514835737
0.3632207071395704
0.3464980213871452
0.3482458329374736
0.3586520593591936
0.36691840034897705
0.3716149411868169
0.36424240134804886
0.35754585452433396
0.37475027455628096
0.3852677820344166
0.3733841971326205
0.3852272708586342
0.4054083042107707
0.4034050584381964
0.3972215486788686
0.4013574524376227
0.42562151516486785
0.4429787605024784
0.41881352539820504
0.4286981801236811
0.4445952591404273
0.44490402401310136
0.4432509868851039
0.4455352791674961
0.47441153967323774
0.489053297528001
0.4738363214883082
0.46611116736920855
0.4676945847099493
0.4777001540444087
0.47040387419252677
0.4496110307985711
0.46416753870005617
0.46009553034930206
0.451499221938018
0.4440904633606825
0.454158563270924
0.4628694712122483
0.4565050653363782
0.4550544861346844
0.4568111464881811
0.47700248352015784
0.4722389110852041
0.44346194342249595
0.45232276088858486
0.47773363407122293
0.4837258188729793
0.4560645910338499
0.4590614747959302
0.5078707352060514
0.5219294547050233
0.5085612293268125
0.5347672253387793
0.5930348676199582
0.6100199052301752
0.5830674828055062
0.5479903098580367
0.5258065909202848
0.5010648032288698
0.45832167925137285
0.41156628068406886
0.4135175524796722
0.41982459975315456
0.40622632295744554
0.38497917591604003
0.37960082310450793
0.36763334424749566
0.4130844564925623
0.6598514917863408
1.0
1.0
1.0
1.0
0.47468123802064105
0.3722424511435774
0.41390351332658926
0.38367350993080196
0.3301629311349997
0.3371740469500759
0.34301503080099477
0.3363888409166777
0.33472463928871454
0.34037164475915327
0.3551259427514623
0.35373392442812146
0.3381521661882446
0.35734094161615115
0.3828072959464743
0.35807800918164057
0.3495268236704951
0.37885452361725946
0.39526883284251335
0.401945035139234
0.38334176837447564
0.3959217659044242
0.424685319122221
0.44109473492961193
0.42904262740872623
0.4270588078413688
0.44716089028226025
0.45077644259372435
0.44694859005542015
0.4467255369970181
0.45841958443593456
0.4761804238465629
0.485902759516465
0.47994015805773504
0.4877812530990844
0.4924215962912638
0.4844241173726827
0.47119395109689843
0.485593847023296
0.4906226602291671
0.4563464780373483
0.4394882116206026
0.45723635669271123
0.4787291515978267
0.4674236351420332
0.4573505313425903
0.46511574243518095
0.4878833178321738
0.49633327060274873
0.48082077924411515
0.4779774893667989
0.49711688268113036
0.4884410826270994
0.4784963704349786
0.4765437005599319
0.48669536417191955
0.49584581896728464
0.490288074419803
0.4992929757927368
0.5245060789453593
0.5446530454969506
0.5590390555849318
0.5935592669300063
0.6187020144269809
0.6123972874018936
0.6019897400560079
0.5760574513240181
0.5491075524604079
0.5015971831096835
0.4795235824494869
0.4453901269408275
0.42746814315161075
0.4332416075431961
0.44724009279830834
0.42741178563747484
0.406561051153927
0.38960384439333645
0.4226446463337141
0.6147733469016862
1.0
1.0
1.0
1.0
0.6973128557482672
0.38267434158287256
0.4093236960401829
0.44106242250531463
0.38042235176967076
0.3675145962510006
0.37944973569499524
0.36141336501283516
0.3525691836237523
0.36233300007546987
0.3870053922802265
0.3771047431326541
0.36378792498370127
0.3693811725285095
0.3870385315360859
0.39630190118657466
0.3814331112949758
0.3817866236629456
0.40262242552015914
0.4233808317085189
0.413332586134476
0.4064905364740102
0.4214044926472337
0.4404076257748117
0.43554682847281523
0.42767368320054644
0.45091848096313464
0.4535229321832789
0.46439105903951683
0.45893376393295127
0.45854397492403853
0.46616787610613375
0.4694647386811873
0.47600666594995583
0.5083401656919757
0.5072808927142501
0.5041904415390673
0.5065346487355635
0.494031899474124
0.4999577620038823
0.5019402886701307
0.48050272466304894
0.4837130768460757
0.4940458152968418
0.48431363969196617
0.4814673399717172
0.47537199499905525
0.4868765521796127
0.4794890590355266
0.47231324523205387
0.4758383389957671
0.49088491790204813
0.4954837003360808
0.48660897695493655
0.4866071980718524
0.49017925972374055
0.49982894401447486
0.48425793219159585
0.48542622276366254
0.5045865604914029
0.530510070482588
0.5292947600812877
0.5423357084023386
0.5864151011992881
0.6428320179267539
0.6257503611374545
0.5948810246413077
0.5853152170331122
0.5491814826540424
0.5210259956549591
0.46884649575959003
0.4202711988485698
0.442998805737839
0.45309169847536257
0.43333776929457385
0.4277116642068394
0.42233287013702336
0.42187933934316124
0.5658607946077842
0.9746717236335355
1.0
1.0
1.0
0.5984115052137726
0.38874878005992164
0.4466897661492565
0.4439415703924306
0.3857518109729449
0.37572603077731437
0.39103555591644445
0.4035500265896073
0.3885924286820014
0.37968307203219415
0.3895756094302346
0.4058358214740557
0.40945072548403
0.40290704851796455
0.406437217495616
0.4241609563595515
0.42160181459068113
0.41014552264967585
0.4270337808466884
0.45471872239134214
0.4567704697335122
0.44665985216568693
0.4682345724974635
0.47907794897629286
0.4799192441975283
0.48751588703155935
0.5062429650143236
0.5105312512945772
0.49731115048529356
0.49643889925093976
0.5265656726653496
0.5604495965807071
0.5451613706257146
0.546856399864222
0.535299115892808
0.5594299779023284
0.5542409714148359
0.5322289128562673
0.5168970003589093
0.5305445388588914
0.541598579598591
0.5471063625906316
0.5161381404628104
0.511657865015915
0.5473593473132816
0.5458476420492163
0.527848964436411
0.5350955231901555
0.5420289538293995
0.557965382053057
0.5542789889142468
0.5345834318136072
0.5526454100366666
0.5463358166739938
0.5343973734594418
0.5379173150813782
0.5500619278363859
0.5782525410231572
0.5758529677954407
0.5847770646825288
0.62704535145355
0.6660625688646918
0.6941484796585533
0.6758426412178166
0.6857516332757907
0.6677986737001923
0.601090226006838
0.5570295662958069
0.5447847303126994
0.5466632288225074
0.4851094084592589
0.4643812937202229
0.4892388348318576
0.5103952872374286
0.5002674338723303
0.4571212817167082
0.4999988057933563
0.8215552746103189
1.0
1.0
1.0
1.0
0.49026351427850356
0.43943530426244315
0.5069685369470411
0.48010633537527153
0.47278380338701825
0.46220745141883357
0.4267863808300939
0.42076823649751766
0.44582579974594194
0.4537306662699788
0.4538848879229856
0.43740123868819436
0.45220481650434285
0.46093703457593255
0.4568303284509934
0.46098075836107943
0.48527440715235687
0.4900233090585959
0.49578432751709656
0.4925367538804587
0.5000937724817242
0.5195873521067935
0.5325460980975281
0.5424701081263422
0.5492536781765426
0.5632968454730689
0.5518300684869255
0.5501361927191748
0.5822187926551281
0.5785456102105674
0.5852975062813982
0.610124297386055
0.6344965769189082
0.6544925248983691
0.6196640831997615
0.5898255846464006
0.5982191371940682
0.6313772453032594
0.6055049980588547
0.5871351072651761
0.6070304282601452
0.6168784495898004
0.6287716228628722
0.6016766317439612
0.6055024058579036
0.6305017600580947
0.6275598664362869
0.6074151785980342
0.6007740707986575
0.6347155680170252
0.6491950827129831
0.6216129913793441
0.6110742820157686
0.6315141374429816
0.6457003293967881
0.6461545604753486
0.6706978466092227
0.6790473427859738
0.6953276523051105
0.7311610943647425
0.7421317688334563
0.7416862596944436
0.739247803105824
0.7089575348925587
0.6586715516077548
0.6424112352022224
0.6145538299094339
0.5795675829937412
0.5718607464586423
0.5911400825424725
0.5722294345318587
0.5543492598676438
0.5424318490834569
0.5524486603232946
0.7443910357754879
1.0
1.0
1.0
1.0
0.6501611284992836
0.5005621797968313
0.54718609201184
0.5610250729249215
0.5332572753771666
0.5118077337114582
0.5007351836788414
0.5090180459417153
0.5061773241603527
0.5273176653167577
0.5066894388286592
0.4954096303039434
0.536765299378591
0.5449615006622214
0.5162769784833052
0.5110501156316565
0.5554206111944124
0.564115297845043
0.5622037077889035
0.5503585729053068
0.5686957899908996
0.592196089049725
0.5798931949541071
0.5912717609224399
0.6171865291425412
0.6115471264144363
0.5996159060777225
0.6127030457987565
0.618635647403121
0.6171834578178949
0.6365719429361205
0.6453763490986724
0.6705471040284292
0.6695281389033668
0.6626904347433651
0.6525890937896378
0.6613893710269398
0.6678075058065456
0.6501980384163666
0.6269520896427684
0.6410455132865287
0.6424395172333981
0.6521349272034833
0.6467065066378044
0.6526312788444235
0.6607979063156986
0.6593735461089464
0.6512576798626376
0.665844626994384
0.6786527211324216
0.6648044887188249
0.6509267977879938
0.6685977760642045
0.6927523710887232
0.6837765868768281
0.6580237587984207
0.6688474726697093
0.6984837438287255
0.727320171210844
0.7345151192267648
0.7395111027324109
0.7775437139176384
0.7944046213166481
0.782487525599252
0.7458204583653899
0.7094374345294534
0.6921508416311977
0.6659870534594994
0.6129129857453265
0.593327481116232
0.60777637347152
0.6097257457156624
0.594277825858019
0.6001192826846563
0.595059325025717
0.5987067394100768
0.8112903495642569
1.0
1.0
1.0
1.0
0.7761885064052165
0.5857613319532714
0.6212172913942967
0.61734444165736
0.5548829183421999
0.527600841471149
0.5529281433502118
0.5540877545733219
0.5269093980359552
0.5205715504067605
0.5543212995183995
0.5547801616639931
0.5391374690600007
0.5325089315938014
0.5608133885557396
0.5692980489038331
0.5627384159243688
0.5547047627865079
0.5601084694182914
0.5843880991118684
0.5826588494522722
0.5754449149462684
0.5849074892947987
0.6000658310984244
0.5963984208605658
0.6036463590917627
0.6158364873723068
0.6091110949109554
0.617496561180834
0.6299958460657338
0.6168597979962042
0.6384370296301938
0.6494806039966253
0.6475148685616837
0.6501821682816221
0.6670306593923169
0.6460347138565533
0.623222585518525
0.6288438575227236
0.653024302402476
0.6381449908701526
0.607324287712739
0.617715529040549
0.6376190588717026
0.6319368383091766
0.6182399791052612
0.6175262197734819
0.6295192796011664
0.643219176873745
0.6303369051852982
0.618685411333952
0.6496057935471553
0.6611113302930413
0.6434927091502197
0.6319379856179317
0.6246435212160233
0.6375982313832583
0.6729286737196063
0.6691841057149588
0.6887841515908872
0.7279960675348871
0.7537259644901925
0.735050642758946
0.7330365863343715
0.7329779669452936
0.6960074344656821
0.6440806850213114
0.6011684414121339
0.5986644388277268
0.5899910906240955
0.5685179649244854
0.5700209620903951
0.5796008976629845
0.5592748878391359
0.5800054140863862
0.7514392664713542
1.0
1.0
1.0
1.0
0.6374481824094153
0.5495516305533568
0.588363494548739
0.5433696334274
0.5099794395794677
0.5110468104105954
0.49840745228527494
0.48933100558463083
0.49983765246883494
0.5066755518390841
0.5078012789656066
0.4962723170813961
0.5111543240508774
0.5138725343040594
0.5018537170339525
0.49352648432600044
0.5029931003792127
0.5097310736954959
0.5309111628214918
0.5390908458701509
0.5245420294915198
0.538391842802141
0.5581708369795437
0.5486473918093948
0.5464436437552983
0.5591830021378225
0.576188132205802
0.579662391663567
0.5710257275129388
0.568091032490153
0.6043395915711345
0.5938057929928429
0.5829638328648252
0.5983907234237711
0.6142599075266726
0.614160804112766
0.5988451518352409
0.5918643574908452
0.5931580252919604
0.5861865598897391
0.5803660509930428
0.5771666166817095
0.5836528189055241
0.5894051322964708
0.5835554382051901
0.5778751034228039
0.5842934603860768
0.5804757344410426
0.5826901743717491
0.5890479031462965
0.5926085684455391
0.6123390810632839
0.5863606143384865
0.5660852909272316
0.5922118128102689
0.6097419651838447
0.5993832646102146
0.5824455683734002
0.594440496856169
0.6323725945345804
0.6561460616747308
0.6521315717325631
0.6784158028509073
0.7191237303945462
0.69269982001696
0.6848103417438753
0.662578001764504
0.6135758865398799
0.5862575527892689
0.5599303941754138
0.5417823408758643
0.5303329167157622
0.5347755553739848
0.5211317900694549
0.5226249670931657
0.5011521225273573
0.5197300955457036
0.7150741948408408
1.0
1.0
1.0
1.0
0.5922171545178407
0.47975775720233704
0.523517828418145
0.47828377346689316
0.4506100761653967
0.4500234573136762
0.45778930739789825
0.44919904887660067
0.4387525090704125
0.4386144802676852
0.4541533296759458
0.45281553960107884
0.4442508157809514
0.44484078984104497
0.45474133576970655
0.46619302648098904
0.4474492594400991
0.44610777389886636
0.46684373769116966
0.48944597086809905
0.48691259650651625
0.4863693007297947
0.4832004653013541
0.5024647381139278
0.5081875215403417
0.5076748134689473
0.5030404100254364
0.5283516042673416
0.5339625800740191
0.5105332917198796
0.5152451116796792
0.5309318907485452
0.5554545851888635
0.556707160339758
0.5482205410520432
0.5524934540797187
0.5580124389963158
0.556352625227059
0.5357879458827546
0.5284148497283424
0.5392292641509064
0.5343856060995646
0.5231212921990624
0.529851701997969
0.5289051654351795
0.5278930187834282
0.5283865599492579
0.5391339944941718
0.5335940301874776
0.5333315478210963
0.5197795096785031
0.5205721551269886
0.5475930308076309
0.5433209135842408
0.5185814925949137
0.5188815760283122
0.5476529167803404
0.5580147048453421
0.5270659352377531
0.5239865020681275
0.5550588218594884
0.59426916397405
0.6147299854504343
0.6229709627008561
0.6344744321631973
0.6366685110662591
0.6376960363154607
0.5959750074964915
0.547241226386201
0.5219976365102116
0.485945541800196
0.45678000533576046
0.45862003529133444
0.4588668658431635
0.45263782251468954
0.44794462857809947
0.42832479570740195
0.4328098243670534
0.5230580560749201
0.845283909394291
1.0
1.0
1.0
0.689451337789068
0.41051199369739166
0.44615062909852654
0.45814525808428685
0.3968443180487964
0.37538936857391575
0.381684044746293
0.3968005230853055
0.39042051756054275
0.39443487922506504
0.3736203958844678
0.38023081749908244
0.40128980766303773
0.3878145784208284
0.38330269398930855
0.4040871944411636
0.41215192784370425
0.4179877757854218
0.4058410694207226
0.41363640435885723
0.4444484493648731
0.43338549773021384
0.4290682306302337
0.4459879562456527
0.45858076564016015
0.47211486683217563
0.44953930264125425
0.45419339333374287
0.4828099457657197
0.4779731094733174
0.4738419980560101
0.5122252196389112
0.5045146435551306
0.4997177096922785
0.4998832740109521
0.4942035753374429
0.4947348314203225
0.5033100567026585
0.49202101946165666
0.4835726864579475
0.48616115141345306
0.5021782211229046
0.5015532462930564
0.49220343342713424
0.49224168589682227
0.49260845925519503
0.4908126381956494
0.49258070096994677
0.4980258620263808
0.510445747734117
0.5074474090086821
0.49028512008697256
0.49721929141815346
0.5108063373834504
0.503884706695889
0.5075967040852218
0.5395081891204689
0.5563166405305459
0.5629861875553936
0.5697368940882752
0.6139864200475377
0.6353002610965064
0.6304422326163274
0.6032749674326964
0.5524397167495614
0.5131457604014193
0.4993705560995051
0.4672114311297621
0.44103227954941043
0.43370700154309627
0.4483879307307138
0.43658785570915626
0.42022223496350664
0.4075625122558974
0.4437677336982686
0.6538786340103602
1.0
1.0
1.0
0.9153169360676312
0.40054164358090566
0.3765147771315358
0.4544535894496387
0.42269460020103916
0.36720101490943946
0.3713841254373086
0.37937310530381085
0.36744300085617104
0.372117629569068
0.3773572568760434
0.3745102183184173
0.3812453200278997
0.38006756160149846
0.3836576461708838
0.3947972773155106
0.4009317543192272
0.3924854383769935
0.39533724841143564
0.41455852050520897
0.4193093520541744
0.42335451726436596
0.4227346557403808
0.43839749191144983
0.4576965774039519
0.4604848744491671
0.45575844169099156
0.4594315980484291
0.4861311680161927
0.47022789517118524
0.4621808925757425
0.4817205028470002
0.5051555095484445
0.5329759029291857
0.5376299931169367
0.5073865065321028
0.5243657766228839
0.5242536386469993
0.5065472183045913
0.5046098142070832
0.5205083912630888
0.515616188428136
0.5022192425651507
0.5026145000482153
0.5252766842586356
0.5368464765750837
0.524355105058976
0.5149178981628921
0.5176109846116626
0.517513918559968
0.5330505670030505
0.5285649129610892
0.5281876147287592
0.5235671685880774
0.5277214600108723
0.5272779545450537
0.5402854067982351
0.5673019239545752
0.5911421485029092
0.5983198043454625
0.6134684672258448
0.6686212265925406
0.6650994198778678
0.6372161786823878
0.623273185658455
0.6061231286446447
0.5595242907663407
0.5104213783243857
0.49152653936233814
0.5034243223717783
0.4769293603574516
0.4708603565911079
0.46781814541329947
0.45199221854550486
0.4679856811556619
0.6809401236233661
1.0
1.0
1.0
1.0
0.5129419198468779
0.4079643986995271
0.5050905317397831
0.4851797698356795
0.41327261887314837
0.41210188084132227
0.4302386133726749
0.4374752396696313
0.4286878119355603
0.4107603266563511
0.419704478700464
0.4483546278782787
0.44912012079013575
0.42577945042115883
0.43134807977882694
0.45134625889897206
0.4431927758145345
0.44302780971608974
0.46347540511331237
0.48572121893042963
0.48521387219357315
0.4752991554071821
0.4841439600155247
0.49777807467924073
0.503245977613356
0.51216235303049
0.5027874922063266
0.504319125746516
0.5088215840635077
0.5126126541976056
0.5344533525107378
0.5613547998065893
0.5639995848538261
0.547404924665347
0.5475365972131668
0.5609819902260714
0.5727237587367504
0.5279301705844006
0.5209575472910833
0.543325280866797
0.5588294834648042
0.5385670871173083
0.5180485769129552
0.5276387451499449
0.5627974156035556
0.5267826818743769
0.5205695881076349
0.5349303514627242
0.5559251968517094
0.56771912704481
0.5547381804165614
0.5460250468278149
0.5614947992619809
0.5767680124350828
0.5748007512856163
0.5598187871286588
0.5446014755896094
0.5760740851048058
0.5965383432598464
0.6035559216603978
0.6404533869743436
0.6745130319025541
0.6535429082231111
0.6452707731663295
0.6415365241568141
0.6027606851799056
0.5246253812060039
0.5018806153688026
0.4822259954348769
0.48502993385754783
0.47895840759699465
0.46142613760900764
0.4590948374573804
0.4673334559897371
0.4329043183568938
0.4804037865950287
0.7652366360874459
1.0
1.0
1.0
1.0
0.5169249816687732
0.4459130515534294
0.46084822614241905
0.43064423823032694
0.3915324844922406
0.39239826036122993
0.39210182429667456
0.3720453772493092
0.3831206824808631
0.3928994572282779
0.3747164439629758
0.3630485983910792
0.3959875692319135
0.3976510274863044
0.3757745509056486
0.383389514261246
0.4030853921774528
0.4099395633908568
0.4010719468840011
0.39282341051549674
0.4143635165867505
0.44041990118272434
0.4511532235485568
0.4360455489867432
0.4171852532441657
0.4465276803745222
0.46198410761969166
0.4580215507618591
0.44831827853413186
0.4505559615830898
0.4650766473136171
0.4718755842521576
0.4769678415142506
0.4862636801502358
0.5000834980294355
0.5046377814840745
0.4847951479324991
0.47801148462241355
0.4820015078298301
0.48480079913751206
0.47851943446110035
0.48430228452466323
0.4950198172667708
0.48397466576910697
0.45886861677500723
0.4655783482607225
0.47821964753381546
0.48297797616324906
0.4743295646126244
0.4624690784157569
0.46673746411861006
0.49220323028405594
0.49197299661056054
0.48003672757277843
0.48601563909060336
0.5048579565597663
0.5063031094527285
0.46522224083498437
0.46449871297344164
0.49701400085793973
0.5038956095890756
0.5106863637776105
0.5235971091460446
0.5468573710932142
0.5817893374685484
0.6201086750256485
0.5942447247673435
0.5844154467697973
0.5792679314070017
0.5443517806507157
0.5043348777819753
0.4921586820928191
0.4441389412769855
0.392826980068786
0.4030540015420244
0.42185626388027747
0.4133622574247979
0.3941029554817662
0.3753465269813021
0.38285394191527733
0.5503055543442337
0.9193181092429923
1.0
1.0
1.0
0.7155536295186261
0.37668537470626945
0.391143386742671
0.4028688566368487
0.35080889434680496
0.31779343719527453
0.32013660603332383
0.32727917597633754
0.3236104136193134
0.31401008488569265
0.3300597065554654
0.32848004840837686
0.3371188908388926
0.3215096691999077
0.32326448913579825
0.34641182308185386
0.355933441029925
0.3414136037157484
0.33539818184660186
0.3529132037542563
0.37345202197694505
0.3644390653359134
0.365520772003422
0.38522775019732236
0.4090786223682975
0.4125660044805423
0.3898743519343154
0.3822748169213383
0.40531664424438657
0.41151234921913576
0.4187722494658154
0.4410887189093147
0.4403673919232953
0.45443488290133616
0.44608242069870263
0.43088773490047344
0.4362747767678437
0.44974307568873606
0.4288000880352092
0.41193170188760464
0.424768317662377
0.4221890403635197
0.41608340379103026
0.4166299539565445
0.4286259651015157
0.4400877802909928
0.4113411528878923
0.41805461718374215
0.4249062227214191
0.43789965319464075
0.43878137426744834
0.4257681348971242
0.4258382725620741
0.450929686936545
0.44738394146675076
0.4333305662344328
0.43337663312163704
0.465547489733952
0.48590002273428656
0.48106112074263263
0.5027685904849856
0.5741552005559981
0.5708831835398172
0.5347870917053273
0.5140618367007036
0.5002841055291978
0.4743060313557252
0.4325247115716773
0.3773910161394163
0.3549609620053641
0.3809632211566699
0.36949802415169225
0.34863843795970295
0.34600026305261444
0.3457081200181418
0.35077515467813436
0.5045468694679007
0.8742046359900184
1.0
1.0
1.0
0.5002492777182881
0.30559054091256765
0.3587374642645604
0.3360364536903533
0.2812786690925743
0.29322097103078193
0.30740967912965894
0.28972860934505945
0.25210507347100297
0.2685813213592306
0.2824255645990661
0.2739024648441578
0.27770910886546857
0.29749566728104104
0.31278464094301106
0.29430346338337254
0.2918445931148383
0.31188762222532374
0.3374922056070221
0.3401850385490266
0.31745598871108066
0.32298734632889314
0.35899290427271013
0.36430185218287486
0.3502539801090768
0.3689292720821583
0.39111450122307484
0.3863298200879169
0.37112242632861603
0.3753147490789453
0.4106544267724389
0.4251164898295447
0.41562942020613125
0.4176194959442948
0.4226583559795916
0.4299794573928521
0.42499833335687337
0.42251114221022534
0.4230001728398919
0.4274788200894977
0.4129276471583564
0.40600188135578197
0.42888925463128463
0.4287211317087419
0.41138964734469685
0.4079457373275262
0.41393981860944884
0.42618194981418966
0.4236337654081569
0.417228656661885
0.4321976453330313
0.44407609992322944
0.44162407060472014
0.42167546411763956
0.41730184195227543
0.4435567861632531
0.4648740398944879
0.4476700211811955
0.4668647701181188
0.5097189189271213
0.5479902311957722
0.5671561394202485
0.5563412251983457
0.5637421242278887
0.5304983560251799
0.4754978882762574
0.44265327023749945
0.42441308535956335
0.41136152245032714
0.4016560902441145
0.3857579195919
0.39787834673215433
0.4122959750881714
0.3805037547908725
0.4184396374718424
0.768278566320981
1.0
1.0
1.0
0.5720658465399542
0.35582458254608457
0.40906359966302197
0.4074879327540308
0.35330306253526467
0.35834521700886607
0.3725231131221141
0.34895862479385126
0.33548315477315016
0.356552025275279
0.37558299834162484
0.36799352328285834
0.36076343555853646
0.3728718252228463
0.388072788640447
0.37773810672952274
0.37477471542876034
0.397713098450061
0.41467719888827553
0.4088239576677455
0.40075172016241745
0.4092353179346472
0.44177393446202196
0.45343122555844984
0.4325404827862528
0.4426390792540692
0.4550840357921294
0.46297325295540076
0.46090411034848533
0.45592141536084496
0.4647417156113323
0.5033907496970638
0.5000113305060186
0.5067747230374617
0.5059130488551967
0.515917445697965
0.5198775745050115
0.502365441623337
0.48258046393912457
0.49919375389384585
0.5098076895220356
0.4754844105034485
0.49242970081823856
0.5109670448677885
0.5125827975588291
0.5068939183293498
0.4997808237576063
0.5144909748395947
0.5104584184747821
0.49852324458717695
0.5076139610593875
0.5147216343308936
0.5198192308256583
0.5240137553431772
0.5078622989348123
0.5138416695264778
0.5282702795246036
0.5385497807093508
0.5501716796376135
0.5668720525149851
0.599619924891265
0.6376072562963307
0.6418138956496605
0.6415057703270717
0.6262650001561254
0.5543594926541731
0.5246057728423039
0.51303907097193
0.4783603343769466
0.4611541848496695
0.4576749932943516
0.4584053919005971
0.4740656500119166
0.4572866687014134
0.4450375573845247
0.5967450520257952
1.0
1.0
1.0
1.0
0.6954818846410722
0.4276778288300763
0.448463968911299
0.4743110705186064
0.43570460982120035
0.4272410824850411
0.42089787815654944
0.42727517849733826
0.4043444615151078
0.42019860538298726
0.43026643922454816
0.42614218618893884
0.4202626664004444
0.4274947272690789
0.43085741420453855
0.44287589163827323
0.451680412238341
0.46410055387154675
0.4477851018020411
0.4277163759383472
0.45456014856861016
0.48080259324801206
0.4903719580738313
0.48406401651916314
0.485474748955224
0.5069097932265321
0.525181759404898
0.507296178415549
0.48333519804250447
0.5155778464011852
0.5352722688425331
0.5297051567174762
0.5289675747567089
0.557104611602759
0.5814332510217186
0.5762529962457175
0.5509509965498431
0.5556227573895914
0.5627616578142117
0.5711172865174331
0.5592454569530182
0.5352151990777336
0.5407551065301422
0.5654601096306145
0.5569202719384487
0.5351571915464245
0.5598426997317454
0.5519804168246563
0.5431040842170851
0.5485808513195825
0.566809858495214
0.5759188936728286
0.5744881828982109
0.5629932910574894
0.5803958807541572
0.594375805575606
0.5802205048199959
0.5641621954102959
0.5596512052392674
0.5936002358967027
0.6036549252344604
0.6194845237298223
0.6181987411588508
0.6650105067359093
0.7154903312486389
0.6993783516063866
0.6785288235776432
0.672527998248766
0.6286659001317207
0.593199218611898
0.542803568658082
0.5346116464720397
0.5217986749465547
0.5162278439109376
0.5173029352883974
0.5158623473048902
0.4904881425898857
0.5626324435873942
0.8653113420780001
1.0
1.0
1.0
0.8961817230067629
0.5245563382037628
0.5162477597756062
0.5534724601669778
0.477182120962799
0.45283928424401976
0.46839343534267774
0.46711632226272004
0.4567646593977111
0.4534929328871833
0.45865636426929945
0.4713684266551435
0.4577733430677752
0.4675595450576352
0.47738134840297775
0.47279473478552625
0.46606457558390835
0.47990390644968306
0.5022216686906744
0.4992709408444512
0.49885497548689584
0.5082203387990443
0.5335748662626518
0.5418068290999458
0.5357548939110972
0.5372628326379976
0.5514904252934132
0.5563353535658295
0.5555980146922316
0.5628076546894778
0.5712764700314236
0.5823605442309392
0.5977820842169776
0.6037377033067605
0.5917405076023224
0.5822305221226955
0.593183613720346
0.5771175806732189
0.5661211605137682
0.5855685663110551
0.5931257652563572
0.5526752871273747
0.5611209886790759
0.5659906248236576
0.5624450628567338
0.575765050839979
0.5746197252698645
0.5814971722069919
0.5769012240291809
0.585681060455162
0.5742992730422315
0.5847174695019188
0.5905215879728233
0.5825562086816347
0.5736437337975003
0.5746554417426896
0.5964441266203113
0.5945461733707302
0.5874428512231874
0.6136952409710198
0.6500666291756962
0.6557112860305407
0.6776742947275111
0.6866652798343134
0.6848703788815615
0.6749624817330513
0.6652595732475911
0.605566376397747
0.5767426257842614
0.5518833529475418
0.5116769214810444
0.4849361508077812
0.49524887874710205
0.5178306803671452
0.5052856410914783
0.470877786245459
0.46660084161016513
0.596887384771789
0.8890385498176412
1.0
1.0
1.0
0.9245389289554566
0.49714649431620755
0.4937290541049625
0.499345626594793
0.43816068109551853
0.4034132099641991
0.40843255470904855
0.40637612998676487
0.41889141975994537
0.40711404089045955
0.4017037785567757
0.4049738039124053
0.4046281265548739
0.3896519801428431
0.39843385043747104
0.4123905428327957
0.4193195248041491
0.416957748877706
0.4093814536549066
0.4267531583534142
0.43594952597702574
0.4426750452646833
0.4247003797451387
0.4275584215933518
0.457265166039402
0.47315146404325265
0.4568594666638421
0.452385948237218
0.46781864039114424
0.47791991992470206
0.474575706279411
0.48582185883185
0.5010703997358712
0.5223880385191081
0.5112452895814241
0.4940089466411979
0.48645940541031524
0.48871550829278326
0.49577700877578434
0.49198721099291953
0.48363025174958685
0.473424006714557
0.48441261551485093
0.4719670590976951
0.4820419035759123
0.47151177229628216
0.4689688522372653
0.47197312549721715
0.4898415766608105
0.5076212154899373
0.503718149514474
0.4858126770321003
0.4857919692962282
0.5024753696529647
0.5106077776012135
0.49326272735655763
0.4807614894079243
0.49307534965218053
0.5158817967409202
0.521252383125611
0.5230253324935876
0.5604537323671351
0.6057037230471259
0.6159972051498086
0.5931053049945798
0.5897396079066289
0.6003705177762816
0.5734544989382835
0.5290175421313296
0.4801022800449274
0.4523669554393517
0.43243417262205563
0.4275185264592509
0.4162150080454728
0.42598576396302246
0.42311191790024827
0.4004953978581309
0.4014539381239229
0.540954048273531
0.8932506302947415
1.0
1.0
1.0
0.7609447253020061
0.44374354677286415
0.41520724748362053
0.4377385823006691
0.4092324767978132
0.3631717367718214
0.34119957670571177
0.35322895841553814
0.3563159468026087
0.3526375345126416
0.36177831130410415
0.34303434409305966
0.3465684356475225
0.35217990624909795
0.347769594609524
0.34203478202552945
0.36531188670295
0.3638043143214415
0.35291200078797746
0.3479292917625594
0.3584172601554373
0.3657948972878248
0.3748763020201556
0.3729492606571113
0.3861813309379579
0.3945010344339687
0.4039940497153406
0.4046379575017715
0.41399546412971083
0.41833688522872003
0.4120666594141301
0.41492370507969323
0.44823032568367616
0.47415007369509066
0.45598325372670334
0.4481792319448837
0.453241009809379
0.45676099312793655
0.4522720057771947
0.42716170947594617
0.42989796007788755
0.4325812802091912
0.4323222048211405
0.41682903787032516
0.42088931909599764
0.43089786104477695
0.4253605534320249
0.42118711639966844
0.42595794971371703
0.4413811515156974
0.44698641815940354
0.43489621769287845
0.42400444621611266
0.43866092618470337
0.45178398673394593
0.4437933241772791
0.4266131308508364
0.4335820862231346
0.4722736071716744
0.4748028735376558
0.4714889138110795
0.5148106731888914
0.5518108927644242
0.5653729975276313
0.5196653955334194
0.5196984359722283
0.5046384997576256
0.4753401708305745
0.4181480996682395
0.3782740635080686
0.3812738157908771
0.3774837647500725
0.37445314448419
0.366975560168137
0.35171231516186297
0.3313925595940462
0.40823275896818256
0.720282816684594
1.0
1.0
1.0
0.5532489781599625
0.3216043688158347
0.37288060766579667
0.3700539572381779
0.3003250327812929
0.28486178019049496
0.31355604232373147
0.3092175724436605
0.2855122596830376
0.2913603790355485
0.31091120499977365
0.306622944775062
0.2789423443016502
0.29921281360983887
0.3040364904433934
0.3109771551683318
0.29150667688615367
0.30521682819632584
0.30786030930332464
0.32042781903833956
0.32347009614980776
0.31960135829508673
0.32496970789797464
0.33137387898275633
0.33931495417550384
0.3360147212902763
0.3436004142509388
0.3467571221741408
0.3486487018525907
0.33830372118482926
0.3516332077306509
0.3765114474061299
0.380991929155182
0.38226150056705244
0.40042106537207944
0.4101931014606698
0.4110370582482338
0.3918053664647654
0.3777537898666483
0.4044469478309912
0.3928085113523251
0.3744631019695003
0.3704505928619923
0.40295554942316275
0.40248673702200766
0.388714050545104
0.35800250577160575
